time,voltage
0.0,-0.145
0.002777777777777778,-0.145
0.005555555555555556,-0.145
0.008333333333333333,-0.145
0.011111111111111112,-0.145
0.013888888888888888,-0.145
0.016666666666666666,-0.145
0.019444444444444445,-0.145
0.022222222222222223,-0.12
0.025,-0.135
0.027777777777777776,-0.145
0.030555555555555555,-0.15
0.03333333333333333,-0.16
0.03611111111111111,-0.155
0.03888888888888889,-0.16
0.041666666666666664,-0.175
0.044444444444444446,-0.18
0.04722222222222222,-0.185
0.05,-0.17
0.05277777777777778,-0.155
0.05555555555555555,-0.175
0.058333333333333334,-0.18
0.06111111111111111,-0.19
0.06388888888888888,-0.18
0.06666666666666667,-0.155
0.06944444444444445,-0.135
0.07222222222222222,-0.155
0.075,-0.19
0.07777777777777778,-0.205
0.08055555555555556,-0.235
0.08333333333333333,-0.225
0.08611111111111111,-0.245
0.08888888888888889,-0.25
0.09166666666666666,-0.26
0.09444444444444444,-0.275
0.09722222222222222,-0.275
0.1,-0.275
0.10277777777777777,-0.265
0.10555555555555556,-0.255
0.10833333333333334,-0.265
0.1111111111111111,-0.275
0.11388888888888889,-0.29
0.11666666666666667,-0.29
0.11944444444444445,-0.29
0.12222222222222222,-0.29
0.125,-0.285
0.12777777777777777,-0.295
0.13055555555555556,-0.305
0.13333333333333333,-0.285
0.1361111111111111,-0.275
0.1388888888888889,-0.275
0.14166666666666666,-0.28
0.14444444444444443,-0.285
0.14722222222222223,-0.305
0.15,-0.29
0.1527777777777778,-0.3
0.15555555555555556,-0.28
0.15833333333333333,-0.29
0.16111111111111112,-0.3
0.1638888888888889,-0.315
0.16666666666666666,-0.32
0.16944444444444445,-0.335
0.17222222222222222,-0.36
0.175,-0.385
0.17777777777777778,-0.385
0.18055555555555555,-0.405
0.18333333333333332,-0.455
0.18611111111111112,-0.485
0.18888888888888888,-0.485
0.19166666666666668,-0.425
0.19444444444444445,-0.33
0.19722222222222222,-0.22
0.2,-0.07
0.20277777777777778,0.12
0.20555555555555555,0.375
0.20833333333333334,0.62
0.2111111111111111,0.78
0.21388888888888888,0.84
0.21666666666666667,0.765
0.21944444444444444,0.52
0.2222222222222222,0.17
0.225,-0.165
0.22777777777777777,-0.365
0.23055555555555557,-0.435
0.23333333333333334,-0.425
0.2361111111111111,-0.37
0.2388888888888889,-0.33
0.24166666666666667,-0.325
0.24444444444444444,-0.335
0.24722222222222223,-0.345
0.25,-0.33
0.25277777777777777,-0.325
0.25555555555555554,-0.315
0.25833333333333336,-0.31
0.2611111111111111,-0.32
0.2638888888888889,-0.335
0.26666666666666666,-0.34
0.26944444444444443,-0.325
0.2722222222222222,-0.345
0.275,-0.335
0.2777777777777778,-0.33
0.28055555555555556,-0.335
0.2833333333333333,-0.33
0.2861111111111111,-0.325
0.28888888888888886,-0.33
0.2916666666666667,-0.33
0.29444444444444445,-0.345
0.2972222222222222,-0.355
0.3,-0.335
0.30277777777777776,-0.325
0.3055555555555556,-0.305
0.30833333333333335,-0.32
0.3111111111111111,-0.32
0.3138888888888889,-0.33
0.31666666666666665,-0.34
0.3194444444444444,-0.335
0.32222222222222224,-0.34
0.325,-0.345
0.3277777777777778,-0.355
0.33055555555555555,-0.355
0.3333333333333333,-0.34
0.33611111111111114,-0.33
0.3388888888888889,-0.33
0.3416666666666667,-0.33
0.34444444444444444,-0.34
0.3472222222222222,-0.35
0.35,-0.325
0.3527777777777778,-0.325
0.35555555555555557,-0.33
0.35833333333333334,-0.33
0.3611111111111111,-0.335
0.3638888888888889,-0.335
0.36666666666666664,-0.34
0.36944444444444446,-0.33
0.37222222222222223,-0.34
0.375,-0.35
0.37777777777777777,-0.355
0.38055555555555554,-0.35
0.38333333333333336,-0.345
0.3861111111111111,-0.33
0.3888888888888889,-0.32
0.39166666666666666,-0.335
0.39444444444444443,-0.33
0.3972222222222222,-0.345
0.4,-0.33
0.4027777777777778,-0.335
0.40555555555555556,-0.335
0.4083333333333333,-0.345
0.4111111111111111,-0.345
0.41388888888888886,-0.355
0.4166666666666667,-0.34
0.41944444444444445,-0.34
0.4222222222222222,-0.335
0.425,-0.33
0.42777777777777776,-0.35
0.4305555555555556,-0.35
0.43333333333333335,-0.345
0.4361111111111111,-0.335
0.4388888888888889,-0.335
0.44166666666666665,-0.335
0.4444444444444444,-0.35
0.44722222222222224,-0.355
0.45,-0.355
0.4527777777777778,-0.345
0.45555555555555555,-0.345
0.4583333333333333,-0.335
0.46111111111111114,-0.35
0.4638888888888889,-0.36
0.4666666666666667,-0.36
0.46944444444444444,-0.36
0.4722222222222222,-0.365
0.475,-0.36
0.4777777777777778,-0.37
0.48055555555555557,-0.385
0.48333333333333334,-0.37
0.4861111111111111,-0.36
0.4888888888888889,-0.355
0.49166666666666664,-0.36
0.49444444444444446,-0.375
0.49722222222222223,-0.375
0.5,-0.365
0.5027777777777778,-0.365
0.5055555555555555,-0.36
0.5083333333333333,-0.36
0.5111111111111111,-0.365
0.5138888888888888,-0.37
0.5166666666666667,-0.355
0.5194444444444445,-0.33
0.5222222222222223,-0.325
0.525,-0.325
0.5277777777777778,-0.335
0.5305555555555556,-0.34
0.5333333333333333,-0.315
0.5361111111111111,-0.3
0.5388888888888889,-0.3
0.5416666666666666,-0.29
0.5444444444444444,-0.295
0.5472222222222223,-0.29
0.55,-0.285
0.5527777777777778,-0.275
0.5555555555555556,-0.255
0.5583333333333333,-0.25
0.5611111111111111,-0.25
0.5638888888888889,-0.265
0.5666666666666667,-0.255
0.5694444444444444,-0.245
0.5722222222222222,-0.23
0.575,-0.245
0.5777777777777777,-0.245
0.5805555555555556,-0.255
0.5833333333333334,-0.255
0.5861111111111111,-0.24
0.5888888888888889,-0.25
0.5916666666666667,-0.255
0.5944444444444444,-0.245
0.5972222222222222,-0.255
0.6,-0.25
0.6027777777777777,-0.25
0.6055555555555555,-0.265
0.6083333333333333,-0.26
0.6111111111111112,-0.26
0.6138888888888889,-0.265
0.6166666666666667,-0.27
0.6194444444444445,-0.265
0.6222222222222222,-0.26
0.625,-0.275
0.6277777777777778,-0.28
0.6305555555555555,-0.29
0.6333333333333333,-0.275
0.6361111111111111,-0.27
0.6388888888888888,-0.26
0.6416666666666667,-0.28
0.6444444444444445,-0.28
0.6472222222222223,-0.285
0.65,-0.275
0.6527777777777778,-0.275
0.6555555555555556,-0.265
0.6583333333333333,-0.27
0.6611111111111111,-0.285
0.6638888888888889,-0.29
0.6666666666666666,-0.28
0.6694444444444444,-0.275
0.6722222222222223,-0.285
0.675,-0.28
0.6777777777777778,-0.3
0.6805555555555556,-0.3
0.6833333333333333,-0.305
0.6861111111111111,-0.295
0.6888888888888889,-0.3
0.6916666666666667,-0.31
0.6944444444444444,-0.31
0.6972222222222222,-0.305
0.7,-0.295
0.7027777777777777,-0.285
0.7055555555555556,-0.285
0.7083333333333334,-0.29
0.7111111111111111,-0.295
0.7138888888888889,-0.31
0.7166666666666667,-0.29
0.7194444444444444,-0.295
0.7222222222222222,-0.3
0.725,-0.305
0.7277777777777777,-0.31
0.7305555555555555,-0.325
0.7333333333333333,-0.31
0.7361111111111112,-0.3
0.7388888888888889,-0.29
0.7416666666666667,-0.31
0.7444444444444445,-0.325
0.7472222222222222,-0.33
0.75,-0.315
0.7527777777777778,-0.3
0.7555555555555555,-0.305
0.7583333333333333,-0.31
0.7611111111111111,-0.32
0.7638888888888888,-0.33
0.7666666666666667,-0.325
0.7694444444444445,-0.315
0.7722222222222223,-0.31
0.775,-0.305
0.7777777777777778,-0.305
0.7805555555555556,-0.31
0.7833333333333333,-0.3
0.7861111111111111,-0.305
0.7888888888888889,-0.29
0.7916666666666666,-0.3
0.7944444444444444,-0.3
0.7972222222222223,-0.305
0.8,-0.305
0.8027777777777778,-0.29
0.8055555555555556,-0.28
0.8083333333333333,-0.295
0.8111111111111111,-0.305
0.8138888888888889,-0.315
0.8166666666666667,-0.305
0.8194444444444444,-0.295
0.8222222222222222,-0.29
0.825,-0.28
0.8277777777777777,-0.27
0.8305555555555556,-0.275
0.8333333333333334,-0.275
0.8361111111111111,-0.27
0.8388888888888889,-0.25
0.8416666666666667,-0.25
0.8444444444444444,-0.255
0.8472222222222222,-0.225
0.85,-0.22
0.8527777777777777,-0.205
0.8555555555555555,-0.2
0.8583333333333333,-0.205
0.8611111111111112,-0.215
0.8638888888888889,-0.23
0.8666666666666667,-0.22
0.8694444444444445,-0.225
0.8722222222222222,-0.225
0.875,-0.225
0.8777777777777778,-0.23
0.8805555555555555,-0.235
0.8833333333333333,-0.24
0.8861111111111111,-0.235
0.8888888888888888,-0.22
0.8916666666666667,-0.21
0.8944444444444445,-0.205
0.8972222222222223,-0.245
0.9,-0.285
0.9027777777777778,-0.285
0.9055555555555556,-0.3
0.9083333333333333,-0.31
0.9111111111111111,-0.33
0.9138888888888889,-0.33
0.9166666666666666,-0.325
0.9194444444444444,-0.315
0.9222222222222223,-0.32
0.925,-0.315
0.9277777777777778,-0.325
0.9305555555555556,-0.34
0.9333333333333333,-0.345
0.9361111111111111,-0.34
0.9388888888888889,-0.34
0.9416666666666667,-0.35
0.9444444444444444,-0.345
0.9472222222222222,-0.355
0.95,-0.33
0.9527777777777777,-0.335
0.9555555555555556,-0.33
0.9583333333333334,-0.32
0.9611111111111111,-0.345
0.9638888888888889,-0.355
0.9666666666666667,-0.34
0.9694444444444444,-0.33
0.9722222222222222,-0.325
0.975,-0.33
0.9777777777777777,-0.35
0.9805555555555555,-0.365
0.9833333333333333,-0.36
0.9861111111111112,-0.38
0.9888888888888889,-0.425
0.9916666666666667,-0.445
0.9944444444444445,-0.475
0.9972222222222222,-0.51
1.0,-0.535
1.0027777777777778,-0.505
1.0055555555555555,-0.415
1.0083333333333333,-0.3
1.011111111111111,-0.16
1.0138888888888888,-0.015
1.0166666666666666,0.235
1.0194444444444444,0.49
1.0222222222222221,0.72
1.025,0.875
1.0277777777777777,0.94
1.0305555555555554,0.905
1.0333333333333334,0.755
1.0361111111111112,0.49
1.038888888888889,0.165
1.0416666666666667,-0.11
1.0444444444444445,-0.27
1.0472222222222223,-0.39
1.05,-0.45
1.0527777777777778,-0.475
1.0555555555555556,-0.455
1.0583333333333333,-0.425
1.0611111111111111,-0.39
1.0638888888888889,-0.39
1.0666666666666667,-0.385
1.0694444444444444,-0.39
1.0722222222222222,-0.38
1.075,-0.38
1.0777777777777777,-0.38
1.0805555555555555,-0.395
1.0833333333333333,-0.385
1.086111111111111,-0.385
1.0888888888888888,-0.385
1.0916666666666666,-0.375
1.0944444444444446,-0.395
1.0972222222222223,-0.41
1.1,-0.41
1.1027777777777779,-0.4
1.1055555555555556,-0.395
1.1083333333333334,-0.39
1.1111111111111112,-0.405
1.113888888888889,-0.395
1.1166666666666667,-0.385
1.1194444444444445,-0.375
1.1222222222222222,-0.39
1.125,-0.39
1.1277777777777778,-0.405
1.1305555555555555,-0.41
1.1333333333333333,-0.41
1.136111111111111,-0.39
1.1388888888888888,-0.39
1.1416666666666666,-0.395
1.1444444444444444,-0.405
1.1472222222222221,-0.415
1.15,-0.4
1.1527777777777777,-0.41
1.1555555555555554,-0.405
1.1583333333333334,-0.41
1.1611111111111112,-0.415
1.163888888888889,-0.41
1.1666666666666667,-0.4
1.1694444444444445,-0.4
1.1722222222222223,-0.395
1.175,-0.39
1.1777777777777778,-0.405
1.1805555555555556,-0.41
1.1833333333333333,-0.39
1.1861111111111111,-0.39
1.1888888888888889,-0.385
1.1916666666666667,-0.385
1.1944444444444444,-0.41
1.1972222222222222,-0.405
1.2,-0.395
1.2027777777777777,-0.39
1.2055555555555555,-0.375
1.2083333333333333,-0.39
1.211111111111111,-0.395
1.2138888888888888,-0.41
1.2166666666666666,-0.4
1.2194444444444446,-0.39
1.2222222222222223,-0.39
1.225,-0.385
1.2277777777777779,-0.405
1.2305555555555556,-0.415
1.2333333333333334,-0.415
1.2361111111111112,-0.4
1.238888888888889,-0.395
1.2416666666666667,-0.405
1.2444444444444445,-0.415
1.2472222222222222,-0.42
1.25,-0.42
1.2527777777777778,-0.41
1.2555555555555555,-0.415
1.2583333333333333,-0.425
1.261111111111111,-0.42
1.2638888888888888,-0.435
1.2666666666666666,-0.43
1.2694444444444444,-0.43
1.2722222222222221,-0.42
1.275,-0.43
1.2777777777777777,-0.45
1.2805555555555554,-0.455
1.2833333333333334,-0.45
1.2861111111111112,-0.435
1.288888888888889,-0.445
1.2916666666666667,-0.45
1.2944444444444445,-0.455
1.2972222222222223,-0.47
1.3,-0.46
1.3027777777777778,-0.455
1.3055555555555556,-0.45
1.3083333333333333,-0.455
1.3111111111111111,-0.47
1.3138888888888889,-0.475
1.3166666666666667,-0.46
1.3194444444444444,-0.45
1.3222222222222222,-0.445
1.325,-0.44
1.3277777777777777,-0.435
1.3305555555555555,-0.44
1.3333333333333333,-0.41
1.336111111111111,-0.395
1.3388888888888888,-0.37
1.3416666666666666,-0.365
1.3444444444444446,-0.36
1.3472222222222223,-0.365
1.35,-0.34
1.3527777777777779,-0.325
1.3555555555555556,-0.315
1.3583333333333334,-0.32
1.3611111111111112,-0.33
1.363888888888889,-0.33
1.3666666666666667,-0.32
1.3694444444444445,-0.31
1.3722222222222222,-0.3
1.375,-0.3
1.3777777777777778,-0.32
1.3805555555555555,-0.32
1.3833333333333333,-0.315
1.386111111111111,-0.305
1.3888888888888888,-0.305
1.3916666666666666,-0.295
1.3944444444444444,-0.32
1.3972222222222221,-0.33
1.4,-0.305
1.4027777777777777,-0.31
1.4055555555555554,-0.3
1.4083333333333334,-0.3
1.4111111111111112,-0.32
1.413888888888889,-0.325
1.4166666666666667,-0.31
1.4194444444444445,-0.305
1.4222222222222223,-0.315
1.425,-0.305
1.4277777777777778,-0.315
1.4305555555555556,-0.315
1.4333333333333333,-0.31
1.4361111111111111,-0.295
1.4388888888888889,-0.29
1.4416666666666667,-0.305
1.4444444444444444,-0.31
1.4472222222222222,-0.32
1.45,-0.315
1.4527777777777777,-0.3
1.4555555555555555,-0.315
1.4583333333333333,-0.315
1.461111111111111,-0.315
1.4638888888888888,-0.33
1.4666666666666666,-0.315
1.4694444444444446,-0.32
1.4722222222222223,-0.315
1.475,-0.325
1.4777777777777779,-0.335
1.4805555555555556,-0.34
1.4833333333333334,-0.335
1.4861111111111112,-0.335
1.488888888888889,-0.33
1.4916666666666667,-0.325
1.4944444444444445,-0.345
1.4972222222222222,-0.35
1.5,-0.345
1.5027777777777778,-0.335
1.5055555555555555,-0.33
1.5083333333333333,-0.33
1.511111111111111,-0.345
1.5138888888888888,-0.345
1.5166666666666666,-0.345
1.5194444444444444,-0.32
1.5222222222222221,-0.33
1.525,-0.335
1.5277777777777777,-0.34
1.5305555555555554,-0.355
1.5333333333333334,-0.335
1.5361111111111112,-0.33
1.538888888888889,-0.33
1.5416666666666667,-0.335
1.5444444444444445,-0.355
1.5472222222222223,-0.36
1.55,-0.355
1.5527777777777778,-0.35
1.5555555555555556,-0.34
1.5583333333333333,-0.345
1.5611111111111111,-0.345
1.5638888888888889,-0.345
1.5666666666666667,-0.345
1.5694444444444444,-0.33
1.5722222222222222,-0.33
1.575,-0.335
1.5777777777777777,-0.345
1.5805555555555555,-0.35
1.5833333333333333,-0.35
1.586111111111111,-0.34
1.5888888888888888,-0.33
1.5916666666666666,-0.345
1.5944444444444446,-0.345
1.5972222222222223,-0.355
1.6,-0.35
1.6027777777777779,-0.34
1.6055555555555556,-0.33
1.6083333333333334,-0.34
1.6111111111111112,-0.34
1.613888888888889,-0.34
1.6166666666666667,-0.33
1.6194444444444445,-0.335
1.6222222222222222,-0.33
1.625,-0.335
1.6277777777777778,-0.345
1.6305555555555555,-0.345
1.6333333333333333,-0.34
1.636111111111111,-0.33
1.6388888888888888,-0.315
1.6416666666666666,-0.295
1.6444444444444444,-0.3
1.6472222222222221,-0.295
1.65,-0.285
1.6527777777777777,-0.275
1.6555555555555554,-0.265
1.6583333333333334,-0.265
1.6611111111111112,-0.265
1.663888888888889,-0.255
1.6666666666666667,-0.25
1.6694444444444445,-0.24
1.6722222222222223,-0.225
1.675,-0.215
1.6777777777777778,-0.24
1.6805555555555556,-0.245
1.6833333333333333,-0.24
1.6861111111111111,-0.245
1.6888888888888889,-0.235
1.6916666666666667,-0.245
1.6944444444444444,-0.25
1.6972222222222222,-0.275
1.7,-0.275
1.7027777777777777,-0.265
1.7055555555555555,-0.25
1.7083333333333333,-0.225
1.711111111111111,-0.22
1.7138888888888888,-0.23
1.7166666666666666,-0.265
1.7194444444444446,-0.27
1.7222222222222223,-0.28
1.725,-0.285
1.7277777777777779,-0.305
1.7305555555555556,-0.32
1.7333333333333334,-0.34
1.7361111111111112,-0.33
1.738888888888889,-0.335
1.7416666666666667,-0.335
1.7444444444444445,-0.355
1.7472222222222222,-0.37
1.75,-0.36
1.7527777777777778,-0.345
1.7555555555555555,-0.35
1.7583333333333333,-0.355
1.761111111111111,-0.365
1.7638888888888888,-0.375
1.7666666666666666,-0.38
1.7694444444444444,-0.37
1.7722222222222221,-0.365
1.775,-0.365
1.7777777777777777,-0.38
1.7805555555555554,-0.385
1.7833333333333334,-0.38
1.7861111111111112,-0.375
1.788888888888889,-0.355
1.7916666666666667,-0.37
1.7944444444444445,-0.39
1.7972222222222223,-0.405
1.8,-0.41
1.8027777777777778,-0.435
1.8055555555555556,-0.465
1.8083333333333333,-0.49
1.8111111111111111,-0.52
1.8138888888888889,-0.555
1.8166666666666667,-0.57
1.8194444444444444,-0.525
1.8222222222222222,-0.405
1.825,-0.25
1.8277777777777777,-0.09
1.8305555555555555,0.12
1.8333333333333333,0.41
1.836111111111111,0.69
1.8388888888888888,0.885
1.8416666666666666,0.96
1.8444444444444446,0.85
1.8472222222222223,0.52
1.85,0.05
1.8527777777777779,-0.32
1.8555555555555556,-0.5
1.8583333333333334,-0.505
1.8611111111111112,-0.445
1.863888888888889,-0.415
1.8666666666666667,-0.395
1.8694444444444445,-0.39
1.8722222222222222,-0.395
1.875,-0.39
1.8777777777777778,-0.395
1.8805555555555555,-0.405
1.8833333333333333,-0.395
1.886111111111111,-0.405
1.8888888888888888,-0.39
1.8916666666666666,-0.395
1.8944444444444444,-0.395
1.8972222222222221,-0.41
1.9,-0.405
1.9027777777777777,-0.4
1.9055555555555554,-0.4
1.9083333333333334,-0.415
1.9111111111111112,-0.405
1.913888888888889,-0.42
1.9166666666666667,-0.415
1.9194444444444445,-0.405
1.9222222222222223,-0.405
1.925,-0.42
1.9277777777777778,-0.42
1.9305555555555556,-0.435
1.9333333333333333,-0.42
1.9361111111111111,-0.41
1.9388888888888889,-0.41
1.9416666666666667,-0.405
1.9444444444444444,-0.425
1.9472222222222222,-0.43
1.95,-0.42
1.9527777777777777,-0.415
1.9555555555555555,-0.41
1.9583333333333333,-0.41
1.961111111111111,-0.425
1.9638888888888888,-0.42
1.9666666666666666,-0.4
1.9694444444444446,-0.395
1.9722222222222223,-0.4
1.975,-0.4
1.9777777777777779,-0.395
1.9805555555555556,-0.415
1.9833333333333334,-0.405
1.9861111111111112,-0.39
1.988888888888889,-0.4
1.9916666666666667,-0.4
1.9944444444444445,-0.415
1.9972222222222222,-0.425
2.0,-0.425
2.0027777777777778,-0.415
2.0055555555555555,-0.415
2.0083333333333333,-0.41
2.011111111111111,-0.425
2.013888888888889,-0.425
2.0166666666666666,-0.42
2.0194444444444444,-0.415
2.022222222222222,-0.4
2.025,-0.4
2.0277777777777777,-0.41
2.0305555555555554,-0.425
2.033333333333333,-0.41
2.036111111111111,-0.405
2.0388888888888888,-0.395
2.0416666666666665,-0.4
2.0444444444444443,-0.4
2.047222222222222,-0.405
2.05,-0.385
2.0527777777777776,-0.4
2.0555555555555554,-0.39
2.058333333333333,-0.39
2.061111111111111,-0.4
2.063888888888889,-0.415
2.066666666666667,-0.405
2.0694444444444446,-0.405
2.0722222222222224,-0.41
2.075,-0.415
2.077777777777778,-0.42
2.0805555555555557,-0.42
2.0833333333333335,-0.425
2.0861111111111112,-0.415
2.088888888888889,-0.415
2.091666666666667,-0.41
2.0944444444444446,-0.435
2.0972222222222223,-0.43
2.1,-0.435
2.102777777777778,-0.42
2.1055555555555556,-0.42
2.1083333333333334,-0.42
2.111111111111111,-0.42
2.113888888888889,-0.425
2.1166666666666667,-0.425
2.1194444444444445,-0.415
2.1222222222222222,-0.395
2.125,-0.395
2.1277777777777778,-0.39
2.1305555555555555,-0.375
2.1333333333333333,-0.36
2.136111111111111,-0.34
2.138888888888889,-0.335
2.1416666666666666,-0.33
2.1444444444444444,-0.335
2.147222222222222,-0.335
2.15,-0.325
2.1527777777777777,-0.32
2.1555555555555554,-0.305
2.158333333333333,-0.305
2.161111111111111,-0.315
2.1638888888888888,-0.31
2.1666666666666665,-0.305
2.1694444444444443,-0.3
2.172222222222222,-0.3
2.175,-0.3
2.1777777777777776,-0.31
2.1805555555555554,-0.31
2.183333333333333,-0.31
2.186111111111111,-0.315
2.188888888888889,-0.3
2.191666666666667,-0.305
2.1944444444444446,-0.315
2.1972222222222224,-0.32
2.2,-0.325
2.202777777777778,-0.31
2.2055555555555557,-0.305
2.2083333333333335,-0.305
2.2111111111111112,-0.32
2.213888888888889,-0.325
2.216666666666667,-0.305
2.2194444444444446,-0.31
2.2222222222222223,-0.295
2.225,-0.31
2.227777777777778,-0.325
2.2305555555555556,-0.33
2.2333333333333334,-0.32
2.236111111111111,-0.32
2.238888888888889,-0.32
2.2416666666666667,-0.325
2.2444444444444445,-0.35
2.2472222222222222,-0.35
2.25,-0.34
2.2527777777777778,-0.335
2.2555555555555555,-0.33
2.2583333333333333,-0.335
2.261111111111111,-0.34
2.263888888888889,-0.36
2.2666666666666666,-0.35
2.2694444444444444,-0.35
2.272222222222222,-0.355
2.275,-0.36
2.2777777777777777,-0.355
2.2805555555555554,-0.365
2.283333333333333,-0.355
2.286111111111111,-0.35
2.2888888888888888,-0.34
2.2916666666666665,-0.355
2.2944444444444443,-0.35
2.297222222222222,-0.365
2.3,-0.365
2.3027777777777776,-0.35
2.3055555555555554,-0.355
2.308333333333333,-0.35
2.311111111111111,-0.37
2.313888888888889,-0.38
2.316666666666667,-0.37
2.3194444444444446,-0.36
2.3222222222222224,-0.365
2.325,-0.36
2.327777777777778,-0.365
2.3305555555555557,-0.38
2.3333333333333335,-0.37
2.3361111111111112,-0.365
2.338888888888889,-0.35
2.341666666666667,-0.35
2.3444444444444446,-0.35
2.3472222222222223,-0.37
2.35,-0.365
2.352777777777778,-0.345
2.3555555555555556,-0.345
2.3583333333333334,-0.34
2.361111111111111,-0.355
2.363888888888889,-0.365
2.3666666666666667,-0.36
2.3694444444444445,-0.355
2.3722222222222222,-0.355
2.375,-0.355
2.3777777777777778,-0.375
2.3805555555555555,-0.385
2.3833333333333333,-0.355
2.386111111111111,-0.36
2.388888888888889,-0.355
2.3916666666666666,-0.36
2.3944444444444444,-0.36
2.397222222222222,-0.37
2.4,-0.36
2.4027777777777777,-0.345
2.4055555555555554,-0.355
2.408333333333333,-0.345
2.411111111111111,-0.345
2.4138888888888888,-0.345
2.4166666666666665,-0.34
2.4194444444444443,-0.31
2.422222222222222,-0.305
2.425,-0.305
2.4277777777777776,-0.31
2.4305555555555554,-0.305
2.433333333333333,-0.29
2.436111111111111,-0.285
2.438888888888889,-0.275
2.441666666666667,-0.28
2.4444444444444446,-0.28
2.4472222222222224,-0.275
2.45,-0.265
2.452777777777778,-0.255
2.4555555555555557,-0.245
2.4583333333333335,-0.26
2.4611111111111112,-0.265
2.463888888888889,-0.275
2.466666666666667,-0.28
2.4694444444444446,-0.265
2.4722222222222223,-0.27
2.475,-0.275
2.477777777777778,-0.28
2.4805555555555556,-0.275
2.4833333333333334,-0.28
2.486111111111111,-0.275
2.488888888888889,-0.265
2.4916666666666667,-0.255
2.4944444444444445,-0.24
2.4972222222222222,-0.26
2.5,-0.28
2.5027777777777778,-0.31
2.5055555555555555,-0.31
2.5083333333333333,-0.345
2.511111111111111,-0.36
2.513888888888889,-0.38
2.5166666666666666,-0.385
2.5194444444444444,-0.38
2.522222222222222,-0.37
2.525,-0.375
2.5277777777777777,-0.385
2.5305555555555554,-0.39
2.533333333333333,-0.395
2.536111111111111,-0.385
2.5388888888888888,-0.385
2.5416666666666665,-0.385
2.5444444444444443,-0.395
2.547222222222222,-0.405
2.55,-0.4
2.5527777777777776,-0.375
2.5555555555555554,-0.375
2.558333333333333,-0.39
2.561111111111111,-0.395
2.563888888888889,-0.415
2.566666666666667,-0.405
2.5694444444444446,-0.4
2.5722222222222224,-0.39
2.575,-0.405
2.577777777777778,-0.425
2.5805555555555557,-0.46
2.5833333333333335,-0.475
2.5861111111111112,-0.505
2.588888888888889,-0.51
2.591666666666667,-0.525
2.5944444444444446,-0.54
2.5972222222222223,-0.6
2.6,-0.645
2.602777777777778,-0.63
2.6055555555555556,-0.575
2.6083333333333334,-0.495
2.611111111111111,-0.385
2.613888888888889,-0.27
2.6166666666666667,-0.115
2.6194444444444445,0.09
2.6222222222222222,0.37
2.625,0.635
2.6277777777777778,0.81
2.6305555555555555,0.86
2.6333333333333333,0.77
2.636111111111111,0.475
2.638888888888889,0.065
2.6416666666666666,-0.305
2.6444444444444444,-0.5
2.647222222222222,-0.52
2.65,-0.475
2.6527777777777777,-0.41
2.6555555555555554,-0.39
2.658333333333333,-0.39
2.661111111111111,-0.4
2.6638888888888888,-0.41
2.6666666666666665,-0.405
2.6694444444444443,-0.385
2.672222222222222,-0.39
2.675,-0.395
2.6777777777777776,-0.405
2.6805555555555554,-0.41
2.683333333333333,-0.405
2.686111111111111,-0.4
2.688888888888889,-0.39
2.691666666666667,-0.395
2.6944444444444446,-0.41
2.6972222222222224,-0.415
2.7,-0.41
2.702777777777778,-0.395
2.7055555555555557,-0.405
2.7083333333333335,-0.41
2.7111111111111112,-0.405
2.713888888888889,-0.405
2.716666666666667,-0.41
2.7194444444444446,-0.39
2.7222222222222223,-0.385
2.725,-0.39
2.727777777777778,-0.395
2.7305555555555556,-0.4
2.7333333333333334,-0.4
2.736111111111111,-0.4
2.738888888888889,-0.395
2.7416666666666667,-0.395
2.7444444444444445,-0.405
2.7472222222222222,-0.405
2.75,-0.4
2.7527777777777778,-0.395
2.7555555555555555,-0.385
2.7583333333333333,-0.375
2.761111111111111,-0.385
2.763888888888889,-0.395
2.7666666666666666,-0.39
2.7694444444444444,-0.385
2.772222222222222,-0.375
2.775,-0.385
2.7777777777777777,-0.395
2.7805555555555554,-0.395
2.783333333333333,-0.385
2.786111111111111,-0.375
2.7888888888888888,-0.375
2.7916666666666665,-0.385
2.7944444444444443,-0.395
2.797222222222222,-0.39
2.8,-0.39
2.8027777777777776,-0.365
2.8055555555555554,-0.375
2.808333333333333,-0.385
2.811111111111111,-0.395
2.813888888888889,-0.38
2.816666666666667,-0.385
2.8194444444444446,-0.375
2.8222222222222224,-0.38
2.825,-0.39
2.827777777777778,-0.38
2.8305555555555557,-0.375
2.8333333333333335,-0.375
2.8361111111111112,-0.375
2.838888888888889,-0.375
2.841666666666667,-0.38
2.8444444444444446,-0.39
2.8472222222222223,-0.39
2.85,-0.365
2.852777777777778,-0.37
2.8555555555555556,-0.375
2.8583333333333334,-0.385
2.861111111111111,-0.39
2.863888888888889,-0.39
2.8666666666666667,-0.375
2.8694444444444445,-0.365
2.8722222222222222,-0.385
2.875,-0.38
2.8777777777777778,-0.39
2.8805555555555555,-0.375
2.8833333333333333,-0.375
2.886111111111111,-0.365
2.888888888888889,-0.37
2.8916666666666666,-0.385
2.8944444444444444,-0.395
2.897222222222222,-0.385
2.9,-0.385
2.9027777777777777,-0.37
2.9055555555555554,-0.365
2.908333333333333,-0.37
2.911111111111111,-0.375
2.9138888888888888,-0.35
2.9166666666666665,-0.335
2.9194444444444443,-0.32
2.922222222222222,-0.315
2.925,-0.32
2.9277777777777776,-0.325
2.9305555555555554,-0.315
2.933333333333333,-0.295
2.936111111111111,-0.285
2.938888888888889,-0.3
2.941666666666667,-0.295
2.9444444444444446,-0.285
2.9472222222222224,-0.285
2.95,-0.28
2.952777777777778,-0.27
2.9555555555555557,-0.28
2.9583333333333335,-0.29
2.9611111111111112,-0.295
2.963888888888889,-0.295
2.966666666666667,-0.29
2.9694444444444446,-0.28
2.9722222222222223,-0.29
2.975,-0.295
2.977777777777778,-0.31
2.9805555555555556,-0.295
2.9833333333333334,-0.285
2.986111111111111,-0.28
2.988888888888889,-0.275
2.9916666666666667,-0.295
2.9944444444444445,-0.305
2.9972222222222222,-0.3
3.0,-0.295
3.0027777777777778,-0.295
3.0055555555555555,-0.285
3.0083333333333333,-0.3
3.011111111111111,-0.305
3.013888888888889,-0.3
3.0166666666666666,-0.295
3.0194444444444444,-0.3
3.022222222222222,-0.305
3.025,-0.315
3.0277777777777777,-0.31
3.0305555555555554,-0.315
3.033333333333333,-0.295
3.036111111111111,-0.3
3.0388888888888888,-0.31
3.0416666666666665,-0.33
3.0444444444444443,-0.34
3.047222222222222,-0.33
3.05,-0.32
3.0527777777777776,-0.32
3.0555555555555554,-0.315
3.058333333333333,-0.325
3.061111111111111,-0.335
3.063888888888889,-0.33
3.066666666666667,-0.315
3.0694444444444446,-0.32
3.0722222222222224,-0.32
3.075,-0.33
3.077777777777778,-0.345
3.0805555555555557,-0.34
3.0833333333333335,-0.335
3.0861111111111112,-0.33
3.088888888888889,-0.335
3.091666666666667,-0.345
3.0944444444444446,-0.35
3.0972222222222223,-0.345
3.1,-0.34
3.102777777777778,-0.335
3.1055555555555556,-0.335
3.1083333333333334,-0.33
3.111111111111111,-0.335
3.113888888888889,-0.34
3.1166666666666667,-0.335
3.1194444444444445,-0.32
3.1222222222222222,-0.34
3.125,-0.34
3.1277777777777778,-0.35
3.1305555555555555,-0.365
3.1333333333333333,-0.36
3.136111111111111,-0.345
3.138888888888889,-0.345
3.1416666666666666,-0.35
3.1444444444444444,-0.35
3.147222222222222,-0.35
3.15,-0.34
3.1527777777777777,-0.34
3.1555555555555554,-0.345
3.158333333333333,-0.345
3.161111111111111,-0.38
3.1638888888888888,-0.36
3.1666666666666665,-0.36
3.1694444444444443,-0.345
3.172222222222222,-0.345
3.175,-0.35
3.1777777777777776,-0.355
3.1805555555555554,-0.345
3.183333333333333,-0.33
3.186111111111111,-0.33
3.188888888888889,-0.335
3.191666666666667,-0.335
3.1944444444444446,-0.34
3.1972222222222224,-0.33
3.2,-0.32
3.202777777777778,-0.29
3.2055555555555557,-0.29
3.2083333333333335,-0.3
3.2111111111111112,-0.305
3.213888888888889,-0.285
3.216666666666667,-0.28
3.2194444444444446,-0.275
3.2222222222222223,-0.28
3.225,-0.275
3.227777777777778,-0.27
3.2305555555555556,-0.265
3.2333333333333334,-0.25
3.236111111111111,-0.23
3.238888888888889,-0.245
3.2416666666666667,-0.24
3.2444444444444445,-0.255
3.2472222222222222,-0.255
3.25,-0.245
3.2527777777777778,-0.235
3.2555555555555555,-0.255
3.2583333333333333,-0.265
3.261111111111111,-0.26
3.263888888888889,-0.255
3.2666666666666666,-0.27
3.2694444444444444,-0.265
3.272222222222222,-0.28
3.275,-0.255
3.2777777777777777,-0.25
3.2805555555555554,-0.245
3.283333333333333,-0.265
3.286111111111111,-0.28
3.2888888888888888,-0.3
3.2916666666666665,-0.315
3.2944444444444443,-0.325
3.297222222222222,-0.335
3.3,-0.345
3.3027777777777776,-0.33
3.3055555555555554,-0.335
3.308333333333333,-0.345
3.311111111111111,-0.36
3.313888888888889,-0.35
3.316666666666667,-0.34
3.3194444444444446,-0.335
3.3222222222222224,-0.345
3.325,-0.36
3.327777777777778,-0.365
3.3305555555555557,-0.375
3.3333333333333335,-0.37
3.3361111111111112,-0.365
3.338888888888889,-0.365
3.341666666666667,-0.38
3.3444444444444446,-0.375
3.3472222222222223,-0.375
3.35,-0.365
3.352777777777778,-0.37
3.3555555555555556,-0.36
3.3583333333333334,-0.37
3.361111111111111,-0.38
3.363888888888889,-0.365
3.3666666666666667,-0.36
3.3694444444444445,-0.35
3.3722222222222222,-0.355
3.375,-0.37
3.3777777777777778,-0.385
3.3805555555555555,-0.395
3.3833333333333333,-0.43
3.386111111111111,-0.445
3.388888888888889,-0.485
3.3916666666666666,-0.515
3.3944444444444444,-0.565
3.397222222222222,-0.555
3.4,-0.475
3.4027777777777777,-0.355
3.4055555555555554,-0.22
3.408333333333333,-0.055
3.411111111111111,0.185
3.4138888888888888,0.475
3.4166666666666665,0.705
3.4194444444444443,0.82
3.422222222222222,0.78
3.425,0.535
3.4277777777777776,0.145
3.4305555555555554,-0.2
3.433333333333333,-0.42
3.436111111111111,-0.5
3.438888888888889,-0.48
3.441666666666667,-0.45
3.4444444444444446,-0.41
3.4472222222222224,-0.4
3.45,-0.39
3.452777777777778,-0.39
3.4555555555555557,-0.4
3.4583333333333335,-0.405
3.4611111111111112,-0.425
3.463888888888889,-0.425
3.466666666666667,-0.405
3.4694444444444446,-0.395
3.4722222222222223,-0.405
3.475,-0.405
3.477777777777778,-0.415
3.4805555555555556,-0.405
3.4833333333333334,-0.385
3.486111111111111,-0.39
3.488888888888889,-0.395
3.4916666666666667,-0.395
3.4944444444444445,-0.395
3.4972222222222222,-0.395
3.5,-0.385
3.5027777777777778,-0.39
3.5055555555555555,-0.39
3.5083333333333333,-0.4
3.511111111111111,-0.425
3.513888888888889,-0.41
3.5166666666666666,-0.4
3.5194444444444444,-0.395
3.522222222222222,-0.4
3.525,-0.405
3.5277777777777777,-0.425
3.5305555555555554,-0.415
3.533333333333333,-0.405
3.536111111111111,-0.405
3.5388888888888888,-0.405
3.5416666666666665,-0.41
3.5444444444444443,-0.415
3.547222222222222,-0.405
3.55,-0.42
3.5527777777777776,-0.405
3.5555555555555554,-0.41
3.558333333333333,-0.41
3.561111111111111,-0.42
3.563888888888889,-0.415
3.566666666666667,-0.405
3.5694444444444446,-0.395
3.5722222222222224,-0.395
3.575,-0.395
3.577777777777778,-0.4
3.5805555555555557,-0.395
3.5833333333333335,-0.395
3.5861111111111112,-0.405
3.588888888888889,-0.405
3.591666666666667,-0.42
3.5944444444444446,-0.435
3.5972222222222223,-0.415
3.6,-0.405
3.602777777777778,-0.395
3.6055555555555556,-0.39
3.6083333333333334,-0.415
3.611111111111111,-0.405
3.613888888888889,-0.405
3.6166666666666667,-0.4
3.6194444444444445,-0.395
3.6222222222222222,-0.395
3.625,-0.405
3.6277777777777778,-0.42
3.6305555555555555,-0.415
3.6333333333333333,-0.4
3.636111111111111,-0.395
3.638888888888889,-0.4
3.6416666666666666,-0.405
3.6444444444444444,-0.425
3.647222222222222,-0.425
3.65,-0.425
3.6527777777777777,-0.42
3.6555555555555554,-0.425
3.658333333333333,-0.45
3.661111111111111,-0.445
3.6638888888888888,-0.45
3.6666666666666665,-0.435
3.6694444444444443,-0.445
3.672222222222222,-0.47
3.675,-0.455
3.6777777777777776,-0.46
3.6805555555555554,-0.44
3.683333333333333,-0.435
3.686111111111111,-0.425
3.688888888888889,-0.43
3.691666666666667,-0.445
3.6944444444444446,-0.45
3.6972222222222224,-0.445
3.7,-0.43
3.702777777777778,-0.42
3.7055555555555557,-0.41
3.7083333333333335,-0.425
3.7111111111111112,-0.42
3.713888888888889,-0.405
3.716666666666667,-0.38
3.7194444444444446,-0.37
3.7222222222222223,-0.365
3.725,-0.365
3.727777777777778,-0.365
3.7305555555555556,-0.345
3.7333333333333334,-0.33
3.736111111111111,-0.315
3.738888888888889,-0.305
3.7416666666666667,-0.305
3.7444444444444445,-0.32
3.7472222222222222,-0.31
3.75,-0.31
3.7527777777777778,-0.305
3.7555555555555555,-0.31
3.7583333333333333,-0.315
3.761111111111111,-0.32
3.763888888888889,-0.315
3.7666666666666666,-0.305
3.7694444444444444,-0.305
3.772222222222222,-0.295
3.775,-0.31
3.7777777777777777,-0.32
3.7805555555555554,-0.31
3.783333333333333,-0.315
3.786111111111111,-0.295
3.7888888888888888,-0.3
3.7916666666666665,-0.305
3.7944444444444443,-0.3
3.797222222222222,-0.285
3.8,-0.28
3.8027777777777776,-0.29
3.8055555555555554,-0.295
3.808333333333333,-0.305
3.811111111111111,-0.325
3.813888888888889,-0.305
3.816666666666667,-0.3
3.8194444444444446,-0.3
3.8222222222222224,-0.315
3.825,-0.325
3.827777777777778,-0.335
3.8305555555555557,-0.325
3.8333333333333335,-0.315
3.8361111111111112,-0.32
3.838888888888889,-0.335
3.841666666666667,-0.33
3.8444444444444446,-0.34
3.8472222222222223,-0.325
3.85,-0.325
3.852777777777778,-0.32
3.8555555555555556,-0.315
3.8583333333333334,-0.335
3.861111111111111,-0.335
3.863888888888889,-0.345
3.8666666666666667,-0.335
3.8694444444444445,-0.325
3.8722222222222222,-0.33
3.875,-0.315
3.8777777777777778,-0.335
3.8805555555555555,-0.33
3.8833333333333333,-0.33
3.886111111111111,-0.33
3.888888888888889,-0.33
3.8916666666666666,-0.335
3.8944444444444444,-0.34
3.897222222222222,-0.33
3.9,-0.32
3.9027777777777777,-0.315
3.9055555555555554,-0.325
3.908333333333333,-0.335
3.911111111111111,-0.355
3.9138888888888888,-0.345
3.9166666666666665,-0.34
3.9194444444444443,-0.335
3.922222222222222,-0.32
3.925,-0.325
3.9277777777777776,-0.35
3.9305555555555554,-0.33
3.933333333333333,-0.315
3.936111111111111,-0.315
3.938888888888889,-0.33
3.941666666666667,-0.33
3.9444444444444446,-0.335
3.9472222222222224,-0.335
3.95,-0.33
3.952777777777778,-0.33
3.9555555555555557,-0.33
3.9583333333333335,-0.34
3.9611111111111112,-0.34
3.963888888888889,-0.34
3.966666666666667,-0.325
3.9694444444444446,-0.325
3.9722222222222223,-0.325
3.975,-0.345
3.977777777777778,-0.35
3.9805555555555556,-0.34
3.9833333333333334,-0.33
3.986111111111111,-0.32
3.988888888888889,-0.31
3.9916666666666667,-0.305
3.9944444444444445,-0.305
3.9972222222222222,-0.275
4.0,-0.27
4.002777777777778,-0.255
4.0055555555555555,-0.26
4.008333333333334,-0.265
4.011111111111111,-0.26
4.013888888888889,-0.25
4.016666666666667,-0.235
4.019444444444445,-0.235
4.022222222222222,-0.22
4.025,-0.235
4.027777777777778,-0.235
4.030555555555556,-0.22
4.033333333333333,-0.23
4.036111111111111,-0.225
4.038888888888889,-0.235
4.041666666666667,-0.245
4.044444444444444,-0.255
4.0472222222222225,-0.24
4.05,-0.23
4.052777777777778,-0.23
4.055555555555555,-0.25
4.058333333333334,-0.255
4.061111111111111,-0.25
4.063888888888889,-0.23
4.066666666666666,-0.205
4.069444444444445,-0.195
4.072222222222222,-0.21
4.075,-0.23
4.0777777777777775,-0.27
4.080555555555556,-0.27
4.083333333333333,-0.285
4.086111111111111,-0.285
4.088888888888889,-0.31
4.091666666666667,-0.33
4.094444444444444,-0.34
4.097222222222222,-0.34
4.1,-0.345
4.102777777777778,-0.35
4.105555555555555,-0.35
4.108333333333333,-0.34
4.111111111111111,-0.355
4.113888888888889,-0.345
4.116666666666666,-0.34
4.1194444444444445,-0.34
4.122222222222222,-0.345
4.125,-0.355
4.127777777777778,-0.37
4.1305555555555555,-0.355
4.133333333333334,-0.37
4.136111111111111,-0.345
4.138888888888889,-0.34
4.141666666666667,-0.36
4.144444444444445,-0.38
4.147222222222222,-0.36
4.15,-0.345
4.152777777777778,-0.35
4.155555555555556,-0.35
4.158333333333333,-0.355
4.161111111111111,-0.38
4.163888888888889,-0.39
4.166666666666667,-0.395
4.169444444444444,-0.425
4.1722222222222225,-0.455
4.175,-0.475
4.177777777777778,-0.51
4.180555555555555,-0.545
4.183333333333334,-0.54
4.186111111111111,-0.495
4.188888888888889,-0.405
4.191666666666666,-0.295
4.194444444444445,-0.16
4.197222222222222,0.04
4.2,0.315
4.2027777777777775,0.595
4.205555555555556,0.8
4.208333333333333,0.885
4.211111111111111,0.795
4.213888888888889,0.52
4.216666666666667,0.13
4.219444444444444,-0.215
4.222222222222222,-0.425
4.225,-0.5
4.227777777777778,-0.49
4.230555555555555,-0.45
4.233333333333333,-0.4
4.236111111111111,-0.39
4.238888888888889,-0.395
4.241666666666666,-0.395
4.2444444444444445,-0.4
4.247222222222222,-0.39
4.25,-0.38
4.252777777777778,-0.385
4.2555555555555555,-0.385
4.258333333333334,-0.4
4.261111111111111,-0.41
4.263888888888889,-0.41
4.266666666666667,-0.39
4.269444444444445,-0.39
4.272222222222222,-0.405
4.275,-0.405
4.277777777777778,-0.415
4.280555555555556,-0.41
4.283333333333333,-0.395
4.286111111111111,-0.395
4.288888888888889,-0.4
4.291666666666667,-0.415
4.294444444444444,-0.415
4.2972222222222225,-0.415
4.3,-0.4
4.302777777777778,-0.39
4.305555555555555,-0.39
4.308333333333334,-0.41
4.311111111111111,-0.415
4.313888888888889,-0.405
4.316666666666666,-0.395
4.319444444444445,-0.395
4.322222222222222,-0.395
4.325,-0.405
4.3277777777777775,-0.41
4.330555555555556,-0.41
4.333333333333333,-0.4
4.336111111111111,-0.39
4.338888888888889,-0.395
4.341666666666667,-0.41
4.344444444444444,-0.425
4.347222222222222,-0.415
4.35,-0.405
4.352777777777778,-0.41
4.355555555555555,-0.405
4.358333333333333,-0.415
4.361111111111111,-0.425
4.363888888888889,-0.425
4.366666666666666,-0.41
4.3694444444444445,-0.395
4.372222222222222,-0.39
4.375,-0.4
4.377777777777778,-0.41
4.3805555555555555,-0.41
4.383333333333334,-0.4
4.386111111111111,-0.39
4.388888888888889,-0.41
4.391666666666667,-0.42
4.394444444444445,-0.42
4.397222222222222,-0.415
4.4,-0.415
4.402777777777778,-0.405
4.405555555555556,-0.42
4.408333333333333,-0.415
4.411111111111111,-0.425
4.413888888888889,-0.41
4.416666666666667,-0.4
4.419444444444444,-0.405
4.4222222222222225,-0.4
4.425,-0.4
4.427777777777778,-0.41
4.430555555555555,-0.4
4.433333333333334,-0.395
4.436111111111111,-0.395
4.438888888888889,-0.405
4.441666666666666,-0.41
4.444444444444445,-0.425
4.447222222222222,-0.425
4.45,-0.41
4.4527777777777775,-0.41
4.455555555555556,-0.42
4.458333333333333,-0.43
4.461111111111111,-0.445
4.463888888888889,-0.44
4.466666666666667,-0.435
4.469444444444444,-0.43
4.472222222222222,-0.43
4.475,-0.45
4.477777777777778,-0.445
4.480555555555555,-0.445
4.483333333333333,-0.435
4.486111111111111,-0.435
4.488888888888889,-0.445
4.491666666666666,-0.44
4.4944444444444445,-0.45
4.497222222222222,-0.43
4.5,-0.43
4.502777777777778,-0.415
4.5055555555555555,-0.4
4.508333333333334,-0.4
4.511111111111111,-0.385
4.513888888888889,-0.365
4.516666666666667,-0.335
4.519444444444445,-0.33
4.522222222222222,-0.325
4.525,-0.33
4.527777777777778,-0.33
4.530555555555556,-0.31
4.533333333333333,-0.295
4.536111111111111,-0.285
4.538888888888889,-0.29
4.541666666666667,-0.29
4.544444444444444,-0.31
4.5472222222222225,-0.295
4.55,-0.285
4.552777777777778,-0.28
4.555555555555555,-0.3
4.558333333333334,-0.29
4.561111111111111,-0.295
4.563888888888889,-0.29
4.566666666666666,-0.28
4.569444444444445,-0.275
4.572222222222222,-0.275
4.575,-0.29
4.5777777777777775,-0.29
4.580555555555556,-0.285
4.583333333333333,-0.27
4.586111111111111,-0.27
4.588888888888889,-0.27
4.591666666666667,-0.275
4.594444444444444,-0.29
4.597222222222222,-0.285
4.6,-0.275
4.602777777777778,-0.275
4.605555555555555,-0.29
4.608333333333333,-0.295
4.611111111111111,-0.305
4.613888888888889,-0.295
4.616666666666666,-0.295
4.6194444444444445,-0.285
4.622222222222222,-0.29
4.625,-0.3
4.627777777777778,-0.305
4.6305555555555555,-0.31
4.633333333333334,-0.295
4.636111111111111,-0.3
4.638888888888889,-0.305
4.641666666666667,-0.31
4.644444444444445,-0.325
4.647222222222222,-0.325
4.65,-0.315
4.652777777777778,-0.31
4.655555555555556,-0.315
4.658333333333333,-0.315
4.661111111111111,-0.325
4.663888888888889,-0.32
4.666666666666667,-0.31
4.669444444444444,-0.32
4.6722222222222225,-0.315
4.675,-0.33
4.677777777777778,-0.33
4.680555555555555,-0.32
4.683333333333334,-0.31
4.686111111111111,-0.31
4.688888888888889,-0.31
4.691666666666666,-0.33
4.694444444444445,-0.335
4.697222222222222,-0.33
4.7,-0.32
4.7027777777777775,-0.325
4.705555555555556,-0.325
4.708333333333333,-0.33
4.711111111111111,-0.335
4.713888888888889,-0.33
4.716666666666667,-0.325
4.719444444444444,-0.325
4.722222222222222,-0.32
4.725,-0.325
4.727777777777778,-0.33
4.730555555555555,-0.325
4.733333333333333,-0.315
4.736111111111111,-0.305
4.738888888888889,-0.325
4.741666666666666,-0.315
4.7444444444444445,-0.335
4.747222222222222,-0.33
4.75,-0.31
4.752777777777778,-0.32
4.7555555555555555,-0.33
4.758333333333334,-0.33
4.761111111111111,-0.335
4.763888888888889,-0.33
4.766666666666667,-0.33
4.769444444444445,-0.32
4.772222222222222,-0.32
4.775,-0.33
4.777777777777778,-0.33
4.780555555555556,-0.325
4.783333333333333,-0.315
4.786111111111111,-0.315
4.788888888888889,-0.315
4.791666666666667,-0.33
4.794444444444444,-0.33
4.7972222222222225,-0.32
4.8,-0.315
4.802777777777778,-0.305
4.805555555555555,-0.305
4.808333333333334,-0.295
4.811111111111111,-0.315
4.813888888888889,-0.3
4.816666666666666,-0.275
4.819444444444445,-0.255
4.822222222222222,-0.255
4.825,-0.26
4.8277777777777775,-0.265
4.830555555555556,-0.255
4.833333333333333,-0.235
4.836111111111111,-0.23
4.838888888888889,-0.225
4.841666666666667,-0.22
4.844444444444444,-0.22
4.847222222222222,-0.215
4.85,-0.2
4.852777777777778,-0.205
4.855555555555555,-0.205
4.858333333333333,-0.225
4.861111111111111,-0.235
4.863888888888889,-0.24
4.866666666666666,-0.23
4.8694444444444445,-0.215
4.872222222222222,-0.24
4.875,-0.24
4.877777777777778,-0.25
4.8805555555555555,-0.235
4.883333333333334,-0.21
4.886111111111111,-0.2
4.888888888888889,-0.22
4.891666666666667,-0.255
4.894444444444445,-0.275
4.897222222222222,-0.285
4.9,-0.3
4.902777777777778,-0.305
4.905555555555556,-0.32
4.908333333333333,-0.33
4.911111111111111,-0.325
4.913888888888889,-0.32
4.916666666666667,-0.33
4.919444444444444,-0.33
4.9222222222222225,-0.335
4.925,-0.34
4.927777777777778,-0.345
4.930555555555555,-0.34
4.933333333333334,-0.335
4.936111111111111,-0.32
4.938888888888889,-0.325
4.941666666666666,-0.335
4.944444444444445,-0.345
4.947222222222222,-0.345
4.95,-0.345
4.9527777777777775,-0.335
4.955555555555556,-0.34
4.958333333333333,-0.345
4.961111111111111,-0.355
4.963888888888889,-0.34
4.966666666666667,-0.34
4.969444444444444,-0.34
4.972222222222222,-0.34
4.975,-0.345
4.977777777777778,-0.355
4.980555555555555,-0.365
4.983333333333333,-0.37
4.986111111111111,-0.405
4.988888888888889,-0.445
4.991666666666666,-0.48
4.9944444444444445,-0.495
4.997222222222222,-0.52
5.0,-0.535
5.002777777777778,-0.505
5.0055555555555555,-0.415
5.008333333333334,-0.28
5.011111111111111,-0.135
5.013888888888889,0.065
5.016666666666667,0.3
5.019444444444445,0.58
5.022222222222222,0.81
5.025,0.945
5.027777777777778,0.92
5.030555555555556,0.775
5.033333333333333,0.445
5.036111111111111,0.02
5.038888888888889,-0.295
5.041666666666667,-0.445
5.044444444444444,-0.47
5.0472222222222225,-0.425
5.05,-0.38
5.052777777777778,-0.36
5.055555555555555,-0.36
5.058333333333334,-0.37
5.061111111111111,-0.38
5.063888888888889,-0.38
5.066666666666666,-0.375
5.069444444444445,-0.37
5.072222222222222,-0.365
5.075,-0.37
5.0777777777777775,-0.385
5.080555555555556,-0.385
5.083333333333333,-0.375
5.086111111111111,-0.37
5.088888888888889,-0.37
5.091666666666667,-0.385
5.094444444444444,-0.395
5.097222222222222,-0.385
5.1,-0.385
5.102777777777778,-0.39
5.105555555555555,-0.385
5.108333333333333,-0.395
5.111111111111111,-0.41
5.113888888888889,-0.4
5.116666666666666,-0.395
5.1194444444444445,-0.38
5.122222222222222,-0.395
5.125,-0.395
5.127777777777778,-0.4
5.1305555555555555,-0.4
5.133333333333334,-0.395
5.136111111111111,-0.39
5.138888888888889,-0.39
5.141666666666667,-0.395
5.144444444444445,-0.405
5.147222222222222,-0.39
5.15,-0.385
5.152777777777778,-0.375
5.155555555555556,-0.375
5.158333333333333,-0.38
5.161111111111111,-0.39
5.163888888888889,-0.385
5.166666666666667,-0.37
5.169444444444444,-0.37
5.1722222222222225,-0.37
5.175,-0.375
5.177777777777778,-0.385
5.180555555555555,-0.37
5.183333333333334,-0.39
5.186111111111111,-0.375
5.188888888888889,-0.37
5.191666666666666,-0.38
5.194444444444445,-0.39
5.197222222222222,-0.39
5.2,-0.385
5.2027777777777775,-0.375
5.205555555555556,-0.375
5.208333333333333,-0.385
5.211111111111111,-0.395
5.213888888888889,-0.39
5.216666666666667,-0.385
5.219444444444444,-0.375
5.222222222222222,-0.38
5.225,-0.385
5.227777777777778,-0.39
5.230555555555555,-0.38
5.233333333333333,-0.38
5.236111111111111,-0.37
5.238888888888889,-0.37
5.241666666666666,-0.365
5.2444444444444445,-0.39
5.247222222222222,-0.365
5.25,-0.365
5.252777777777778,-0.36
5.2555555555555555,-0.375
5.258333333333334,-0.38
5.261111111111111,-0.4
5.263888888888889,-0.39
5.266666666666667,-0.375
5.269444444444445,-0.375
5.272222222222222,-0.37
5.275,-0.385
5.277777777777778,-0.39
5.280555555555556,-0.39
5.283333333333333,-0.39
5.286111111111111,-0.39
5.288888888888889,-0.375
5.291666666666667,-0.385
5.294444444444444,-0.395
5.2972222222222225,-0.38
5.3,-0.37
5.302777777777778,-0.375
5.305555555555555,-0.375
5.308333333333334,-0.39
5.311111111111111,-0.405
5.313888888888889,-0.375
5.316666666666666,-0.37
5.319444444444445,-0.36
5.322222222222222,-0.375
5.325,-0.385
5.3277777777777775,-0.38
5.330555555555556,-0.37
5.333333333333333,-0.36
5.336111111111111,-0.345
5.338888888888889,-0.345
5.341666666666667,-0.33
5.344444444444444,-0.33
5.347222222222222,-0.315
5.35,-0.31
5.352777777777778,-0.295
5.355555555555555,-0.285
5.358333333333333,-0.285
5.361111111111111,-0.295
5.363888888888889,-0.28
5.366666666666666,-0.27
5.3694444444444445,-0.28
5.372222222222222,-0.28
5.375,-0.28
5.377777777777778,-0.29
5.3805555555555555,-0.29
5.383333333333334,-0.28
5.386111111111111,-0.275
5.388888888888889,-0.28
5.391666666666667,-0.285
5.394444444444445,-0.29
5.397222222222222,-0.29
5.4,-0.28
5.402777777777778,-0.28
5.405555555555556,-0.285
5.408333333333333,-0.29
5.411111111111111,-0.3
5.413888888888889,-0.295
5.416666666666667,-0.285
5.419444444444444,-0.28
5.4222222222222225,-0.285
5.425,-0.285
5.427777777777778,-0.295
5.430555555555555,-0.285
5.433333333333334,-0.28
5.436111111111111,-0.275
5.438888888888889,-0.28
5.441666666666666,-0.29
5.444444444444445,-0.31
5.447222222222222,-0.305
5.45,-0.285
5.4527777777777775,-0.27
5.455555555555556,-0.27
5.458333333333333,-0.275
5.461111111111111,-0.285
5.463888888888889,-0.285
5.466666666666667,-0.27
5.469444444444444,-0.265
5.472222222222222,-0.265
5.475,-0.265
5.477777777777778,-0.28
5.480555555555555,-0.265
5.483333333333333,-0.245
5.486111111111111,-0.235
5.488888888888889,-0.235
5.491666666666666,-0.25
5.4944444444444445,-0.25
5.497222222222222,-0.245
5.5,-0.215
5.502777777777778,-0.22
5.5055555555555555,-0.245
5.508333333333334,-0.255
5.511111111111111,-0.23
5.513888888888889,-0.205
5.516666666666667,-0.21
5.519444444444445,-0.22
5.522222222222222,-0.23
5.525,-0.24
5.527777777777778,-0.24
5.530555555555556,-0.245
5.533333333333333,-0.25
5.536111111111111,-0.27
5.538888888888889,-0.285
5.541666666666667,-0.315
5.544444444444444,-0.32
5.5472222222222225,-0.32
5.55,-0.31
5.552777777777778,-0.33
5.555555555555555,-0.34
5.558333333333334,-0.345
5.561111111111111,-0.36
5.563888888888889,-0.365
5.566666666666666,-0.36
5.569444444444445,-0.35
5.572222222222222,-0.355
5.575,-0.375
5.5777777777777775,-0.385
5.580555555555556,-0.375
5.583333333333333,-0.37
5.586111111111111,-0.365
5.588888888888889,-0.365
5.591666666666667,-0.37
5.594444444444444,-0.38
5.597222222222222,-0.36
5.6,-0.35
5.602777777777778,-0.355
5.605555555555555,-0.355
5.608333333333333,-0.35
5.611111111111111,-0.365
5.613888888888889,-0.35
5.616666666666666,-0.35
5.6194444444444445,-0.34
5.622222222222222,-0.355
5.625,-0.35
5.627777777777778,-0.375
5.6305555555555555,-0.365
5.633333333333334,-0.375
5.636111111111111,-0.4
5.638888888888889,-0.43
5.641666666666667,-0.475
5.644444444444445,-0.52
5.647222222222222,-0.52
5.65,-0.55
5.652777777777778,-0.57
5.655555555555556,-0.54
5.658333333333333,-0.445
5.661111111111111,-0.305
5.663888888888889,-0.14
5.666666666666667,0.025
5.669444444444444,0.26
5.6722222222222225,0.51
5.675,0.735
5.677777777777778,0.845
5.680555555555555,0.875
5.683333333333334,0.735
5.686111111111111,0.4
5.688888888888889,-0.025
5.691666666666666,-0.335
5.694444444444445,-0.48
5.697222222222222,-0.47
5.7,-0.415
5.7027777777777775,-0.375
5.705555555555556,-0.365
5.708333333333333,-0.385
5.711111111111111,-0.4
5.713888888888889,-0.38
5.716666666666667,-0.39
5.719444444444444,-0.375
5.722222222222222,-0.385
5.725,-0.395
5.727777777777778,-0.405
5.730555555555555,-0.39
5.733333333333333,-0.38
5.736111111111111,-0.385
5.738888888888889,-0.385
5.741666666666666,-0.395
5.7444444444444445,-0.4
5.747222222222222,-0.405
5.75,-0.4
5.752777777777778,-0.39
5.7555555555555555,-0.39
5.758333333333334,-0.395
5.761111111111111,-0.4
5.763888888888889,-0.39
5.766666666666667,-0.385
5.769444444444445,-0.39
5.772222222222222,-0.385
5.775,-0.41
5.777777777777778,-0.42
5.780555555555556,-0.405
5.783333333333333,-0.41
5.786111111111111,-0.39
5.788888888888889,-0.39
5.791666666666667,-0.39
5.794444444444444,-0.4
5.7972222222222225,-0.4
5.8,-0.39
5.802777777777778,-0.375
5.805555555555555,-0.38
5.808333333333334,-0.395
5.811111111111111,-0.4
5.813888888888889,-0.39
5.816666666666666,-0.4
5.819444444444445,-0.39
5.822222222222222,-0.395
5.825,-0.41
5.8277777777777775,-0.415
5.830555555555556,-0.405
5.833333333333333,-0.385
5.836111111111111,-0.385
5.838888888888889,-0.38
5.841666666666667,-0.4
5.844444444444444,-0.4
5.847222222222222,-0.395
5.85,-0.39
5.852777777777778,-0.38
5.855555555555555,-0.375
5.858333333333333,-0.395
5.861111111111111,-0.395
5.863888888888889,-0.385
5.866666666666666,-0.38
5.8694444444444445,-0.375
5.872222222222222,-0.385
5.875,-0.39
5.877777777777778,-0.4
5.8805555555555555,-0.4
5.883333333333334,-0.385
5.886111111111111,-0.38
5.888888888888889,-0.395
5.891666666666667,-0.39
5.894444444444445,-0.4
5.897222222222222,-0.395
5.9,-0.385
5.902777777777778,-0.38
5.905555555555556,-0.385
5.908333333333333,-0.395
5.911111111111111,-0.405
5.913888888888889,-0.4
5.916666666666667,-0.39
5.919444444444444,-0.38
5.9222222222222225,-0.38
5.925,-0.385
5.927777777777778,-0.405
5.930555555555555,-0.395
5.933333333333334,-0.4
5.936111111111111,-0.39
5.938888888888889,-0.4
5.941666666666666,-0.405
5.944444444444445,-0.425
5.947222222222222,-0.42
5.95,-0.405
5.9527777777777775,-0.4
5.955555555555556,-0.405
5.958333333333333,-0.405
5.961111111111111,-0.415
5.963888888888889,-0.4
5.966666666666667,-0.39
5.969444444444444,-0.38
5.972222222222222,-0.385
5.975,-0.395
5.977777777777778,-0.405
5.980555555555555,-0.39
5.983333333333333,-0.37
5.986111111111111,-0.37
5.988888888888889,-0.37
5.991666666666666,-0.385
5.9944444444444445,-0.37
5.997222222222222,-0.355
6.0,-0.345
6.002777777777778,-0.34
6.0055555555555555,-0.335
6.008333333333334,-0.34
6.011111111111111,-0.355
6.013888888888889,-0.335
6.016666666666667,-0.325
6.019444444444445,-0.31
6.022222222222222,-0.305
6.025,-0.305
6.027777777777778,-0.32
6.030555555555556,-0.315
6.033333333333333,-0.31
6.036111111111111,-0.305
6.038888888888889,-0.305
6.041666666666667,-0.33
6.044444444444444,-0.325
6.0472222222222225,-0.345
6.05,-0.325
6.052777777777778,-0.315
6.055555555555555,-0.315
6.058333333333334,-0.305
6.061111111111111,-0.31
6.063888888888889,-0.31
6.066666666666666,-0.3
6.069444444444445,-0.305
6.072222222222222,-0.305
6.075,-0.315
6.0777777777777775,-0.32
6.080555555555556,-0.325
6.083333333333333,-0.315
6.086111111111111,-0.305
6.088888888888889,-0.315
6.091666666666667,-0.325
6.094444444444444,-0.325
6.097222222222222,-0.33
6.1,-0.315
6.102777777777778,-0.315
6.105555555555555,-0.31
6.108333333333333,-0.33
6.111111111111111,-0.34
6.113888888888889,-0.335
6.116666666666666,-0.33
6.1194444444444445,-0.345
6.122222222222222,-0.355
6.125,-0.365
6.127777777777778,-0.37
6.1305555555555555,-0.345
6.133333333333334,-0.34
6.136111111111111,-0.34
6.138888888888889,-0.345
6.141666666666667,-0.36
6.144444444444445,-0.365
6.147222222222222,-0.36
6.15,-0.36
6.152777777777778,-0.345
6.155555555555556,-0.355
6.158333333333333,-0.365
6.161111111111111,-0.35
6.163888888888889,-0.36
6.166666666666667,-0.35
6.169444444444444,-0.34
6.1722222222222225,-0.345
6.175,-0.355
6.177777777777778,-0.37
6.180555555555555,-0.35
6.183333333333334,-0.35
6.186111111111111,-0.35
6.188888888888889,-0.345
6.191666666666666,-0.35
6.194444444444445,-0.355
6.197222222222222,-0.36
6.2,-0.345
6.2027777777777775,-0.355
6.205555555555556,-0.35
6.208333333333333,-0.36
6.211111111111111,-0.37
6.213888888888889,-0.355
6.216666666666667,-0.355
6.219444444444444,-0.35
6.222222222222222,-0.355
6.225,-0.36
6.227777777777778,-0.39
6.230555555555555,-0.385
6.233333333333333,-0.36
6.236111111111111,-0.36
6.238888888888889,-0.37
6.241666666666666,-0.37
6.2444444444444445,-0.39
6.247222222222222,-0.375
6.25,-0.37
6.252777777777778,-0.35
6.2555555555555555,-0.34
6.258333333333334,-0.345
6.261111111111111,-0.36
6.263888888888889,-0.36
6.266666666666667,-0.35
6.269444444444445,-0.35
6.272222222222222,-0.335
6.275,-0.36
6.277777777777778,-0.365
6.280555555555556,-0.365
6.283333333333333,-0.36
6.286111111111111,-0.36
6.288888888888889,-0.365
6.291666666666667,-0.375
6.294444444444444,-0.385
6.2972222222222225,-0.385
6.3,-0.365
6.302777777777778,-0.37
6.305555555555555,-0.375
6.308333333333334,-0.37
6.311111111111111,-0.375
6.313888888888889,-0.365
6.316666666666666,-0.355
6.319444444444445,-0.355
6.322222222222222,-0.36
6.325,-0.365
6.3277777777777775,-0.37
6.330555555555556,-0.36
6.333333333333333,-0.35
6.336111111111111,-0.34
6.338888888888889,-0.345
6.341666666666667,-0.34
6.344444444444444,-0.35
6.347222222222222,-0.345
6.35,-0.35
6.352777777777778,-0.36
6.355555555555555,-0.35
6.358333333333333,-0.36
6.361111111111111,-0.37
6.363888888888889,-0.36
6.366666666666666,-0.36
6.3694444444444445,-0.355
6.372222222222222,-0.36
6.375,-0.375
6.377777777777778,-0.375
6.3805555555555555,-0.37
6.383333333333334,-0.35
6.386111111111111,-0.355
6.388888888888889,-0.36
6.391666666666667,-0.365
6.394444444444445,-0.375
6.397222222222222,-0.37
6.4,-0.365
6.402777777777778,-0.36
6.405555555555556,-0.355
6.408333333333333,-0.36
6.411111111111111,-0.36
6.413888888888889,-0.35
6.416666666666667,-0.34
6.419444444444444,-0.345
6.4222222222222225,-0.345
6.425,-0.355
6.427777777777778,-0.36
6.430555555555555,-0.36
6.433333333333334,-0.365
6.436111111111111,-0.345
6.438888888888889,-0.355
6.441666666666666,-0.35
6.444444444444445,-0.36
6.447222222222222,-0.355
6.45,-0.36
6.4527777777777775,-0.345
6.455555555555556,-0.335
6.458333333333333,-0.33
6.461111111111111,-0.33
6.463888888888889,-0.31
6.466666666666667,-0.305
6.469444444444444,-0.3
6.472222222222222,-0.305
6.475,-0.295
6.477777777777778,-0.305
6.480555555555555,-0.285
6.483333333333333,-0.275
6.486111111111111,-0.265
6.488888888888889,-0.255
6.491666666666666,-0.255
6.4944444444444445,-0.26
6.497222222222222,-0.265
6.5,-0.255
6.502777777777778,-0.255
6.5055555555555555,-0.26
6.508333333333334,-0.28
6.511111111111111,-0.29
6.513888888888889,-0.28
6.516666666666667,-0.27
6.519444444444445,-0.255
6.522222222222222,-0.275
6.525,-0.29
6.527777777777778,-0.32
6.530555555555556,-0.3
6.533333333333333,-0.295
6.536111111111111,-0.27
6.538888888888889,-0.265
6.541666666666667,-0.27
6.544444444444444,-0.285
6.5472222222222225,-0.3
6.55,-0.31
6.552777777777778,-0.315
6.555555555555555,-0.32
6.558333333333334,-0.35
6.561111111111111,-0.37
6.563888888888889,-0.365
6.566666666666666,-0.365
6.569444444444445,-0.365
6.572222222222222,-0.37
6.575,-0.37
6.5777777777777775,-0.37
6.580555555555556,-0.38
6.583333333333333,-0.36
6.586111111111111,-0.375
6.588888888888889,-0.375
6.591666666666667,-0.4
6.594444444444444,-0.42
6.597222222222222,-0.405
6.6,-0.4
6.602777777777778,-0.385
6.605555555555555,-0.38
6.608333333333333,-0.4
6.611111111111111,-0.415
6.613888888888889,-0.405
6.616666666666666,-0.395
6.6194444444444445,-0.395
6.622222222222222,-0.395
6.625,-0.41
6.627777777777778,-0.43
6.6305555555555555,-0.44
6.633333333333334,-0.455
6.636111111111111,-0.49
6.638888888888889,-0.485
6.641666666666667,-0.52
6.644444444444445,-0.57
6.647222222222222,-0.575
6.65,-0.525
6.652777777777778,-0.42
6.655555555555556,-0.305
6.658333333333333,-0.19
6.661111111111111,-0.02
6.663888888888889,0.22
6.666666666666667,0.485
6.669444444444444,0.715
6.6722222222222225,0.845
6.675,0.885
6.677777777777778,0.79
6.680555555555555,0.56
6.683333333333334,0.225
6.686111111111111,-0.07
6.688888888888889,-0.285
6.691666666666666,-0.425
6.694444444444445,-0.5
6.697222222222222,-0.55
6.7,-0.535
6.7027777777777775,-0.5
6.705555555555556,-0.465
6.708333333333333,-0.45
6.711111111111111,-0.45
6.713888888888889,-0.435
6.716666666666667,-0.42
6.719444444444444,-0.41
6.722222222222222,-0.41
6.725,-0.415
6.727777777777778,-0.42
6.730555555555555,-0.425
6.733333333333333,-0.42
6.736111111111111,-0.43
6.738888888888889,-0.43
6.741666666666666,-0.44
6.7444444444444445,-0.45
6.747222222222222,-0.45
6.75,-0.43
6.752777777777778,-0.43
6.7555555555555555,-0.43
6.758333333333334,-0.445
6.761111111111111,-0.445
6.763888888888889,-0.44
6.766666666666667,-0.425
6.769444444444445,-0.43
6.772222222222222,-0.43
6.775,-0.425
6.777777777777778,-0.445
6.780555555555556,-0.445
6.783333333333333,-0.43
6.786111111111111,-0.435
6.788888888888889,-0.435
6.791666666666667,-0.445
6.794444444444444,-0.445
6.7972222222222225,-0.435
6.8,-0.43
6.802777777777778,-0.425
6.805555555555555,-0.43
6.808333333333334,-0.43
6.811111111111111,-0.44
6.813888888888889,-0.42
6.816666666666666,-0.43
6.819444444444445,-0.425
6.822222222222222,-0.43
6.825,-0.44
6.8277777777777775,-0.44
6.830555555555556,-0.43
6.833333333333333,-0.43
6.836111111111111,-0.415
6.838888888888889,-0.425
6.841666666666667,-0.43
6.844444444444444,-0.455
6.847222222222222,-0.445
6.85,-0.445
6.852777777777778,-0.43
6.855555555555555,-0.43
6.858333333333333,-0.44
6.861111111111111,-0.44
6.863888888888889,-0.435
6.866666666666666,-0.43
6.8694444444444445,-0.415
6.872222222222222,-0.415
6.875,-0.425
6.877777777777778,-0.425
6.8805555555555555,-0.42
6.883333333333334,-0.405
6.886111111111111,-0.405
6.888888888888889,-0.415
6.891666666666667,-0.415
6.894444444444445,-0.425
6.897222222222222,-0.43
6.9,-0.405
6.902777777777778,-0.405
6.905555555555556,-0.405
6.908333333333333,-0.405
6.911111111111111,-0.43
6.913888888888889,-0.415
6.916666666666667,-0.41
6.919444444444444,-0.415
6.9222222222222225,-0.43
6.925,-0.445
6.927777777777778,-0.465
6.930555555555555,-0.46
6.933333333333334,-0.45
6.936111111111111,-0.455
6.938888888888889,-0.46
6.941666666666666,-0.465
6.944444444444445,-0.485
6.947222222222222,-0.495
6.95,-0.475
6.9527777777777775,-0.49
6.955555555555556,-0.5
6.958333333333333,-0.495
6.961111111111111,-0.515
6.963888888888889,-0.5
6.966666666666667,-0.485
6.969444444444444,-0.49
6.972222222222222,-0.485
6.975,-0.5
6.977777777777778,-0.5
6.980555555555555,-0.49
6.983333333333333,-0.48
6.986111111111111,-0.46
6.988888888888889,-0.46
6.991666666666666,-0.47
6.9944444444444445,-0.465
6.997222222222222,-0.44
7.0,-0.43
7.002777777777778,-0.425
7.0055555555555555,-0.41
7.008333333333334,-0.41
7.011111111111111,-0.4
7.013888888888889,-0.39
7.016666666666667,-0.38
7.019444444444445,-0.355
7.022222222222222,-0.35
7.025,-0.355
7.027777777777778,-0.35
7.030555555555556,-0.34
7.033333333333333,-0.33
7.036111111111111,-0.325
7.038888888888889,-0.305
7.041666666666667,-0.32
7.044444444444444,-0.315
7.0472222222222225,-0.305
7.05,-0.3
7.052777777777778,-0.305
7.055555555555555,-0.305
7.058333333333334,-0.31
7.061111111111111,-0.33
7.063888888888889,-0.31
7.066666666666666,-0.315
7.069444444444445,-0.315
7.072222222222222,-0.32
7.075,-0.325
7.0777777777777775,-0.325
7.080555555555556,-0.325
7.083333333333333,-0.31
7.086111111111111,-0.31
7.088888888888889,-0.315
7.091666666666667,-0.325
7.094444444444444,-0.33
7.097222222222222,-0.325
7.1,-0.325
7.102777777777778,-0.315
7.105555555555555,-0.32
7.108333333333333,-0.33
7.111111111111111,-0.335
7.113888888888889,-0.33
7.116666666666666,-0.315
7.1194444444444445,-0.32
7.122222222222222,-0.32
7.125,-0.335
7.127777777777778,-0.335
7.1305555555555555,-0.325
7.133333333333334,-0.325
7.136111111111111,-0.32
7.138888888888889,-0.32
7.141666666666667,-0.325
7.144444444444445,-0.35
7.147222222222222,-0.345
7.15,-0.345
7.152777777777778,-0.335
7.155555555555556,-0.345
7.158333333333333,-0.355
7.161111111111111,-0.355
7.163888888888889,-0.355
7.166666666666667,-0.345
7.169444444444444,-0.335
7.1722222222222225,-0.335
7.175,-0.345
7.177777777777778,-0.355
7.180555555555555,-0.34
7.183333333333334,-0.335
7.186111111111111,-0.33
7.188888888888889,-0.335
7.191666666666666,-0.345
7.194444444444445,-0.35
7.197222222222222,-0.35
7.2,-0.34
7.2027777777777775,-0.335
7.205555555555556,-0.33
7.208333333333333,-0.36
7.211111111111111,-0.355
7.213888888888889,-0.345
7.216666666666667,-0.335
7.219444444444444,-0.345
7.222222222222222,-0.35
7.225,-0.36
7.227777777777778,-0.38
7.230555555555555,-0.37
7.233333333333333,-0.345
7.236111111111111,-0.345
7.238888888888889,-0.35
7.241666666666666,-0.355
7.2444444444444445,-0.365
7.247222222222222,-0.36
7.25,-0.345
7.252777777777778,-0.345
7.2555555555555555,-0.35
7.258333333333334,-0.36
7.261111111111111,-0.36
7.263888888888889,-0.35
7.266666666666667,-0.355
7.269444444444445,-0.34
7.272222222222222,-0.345
7.275,-0.355
7.277777777777778,-0.355
7.280555555555556,-0.355
7.283333333333333,-0.34
7.286111111111111,-0.34
7.288888888888889,-0.345
7.291666666666667,-0.365
7.294444444444444,-0.37
7.2972222222222225,-0.35
7.3,-0.33
7.302777777777778,-0.32
7.305555555555555,-0.315
7.308333333333334,-0.295
7.311111111111111,-0.305
7.313888888888889,-0.295
7.316666666666666,-0.3
7.319444444444445,-0.285
7.322222222222222,-0.275
7.325,-0.26
7.3277777777777775,-0.275
7.330555555555556,-0.265
7.333333333333333,-0.26
7.336111111111111,-0.25
7.338888888888889,-0.245
7.341666666666667,-0.255
7.344444444444444,-0.265
7.347222222222222,-0.26
7.35,-0.26
7.352777777777778,-0.25
7.355555555555555,-0.26
7.358333333333333,-0.28
7.361111111111111,-0.28
7.363888888888889,-0.275
7.366666666666666,-0.285
7.3694444444444445,-0.28
7.372222222222222,-0.255
7.375,-0.245
7.377777777777778,-0.245
7.3805555555555555,-0.26
7.383333333333334,-0.285
7.386111111111111,-0.29
7.388888888888889,-0.3
7.391666666666667,-0.32
7.394444444444445,-0.335
7.397222222222222,-0.355
7.4,-0.35
7.402777777777778,-0.355
7.405555555555556,-0.355
7.408333333333333,-0.375
7.411111111111111,-0.385
7.413888888888889,-0.38
7.416666666666667,-0.36
7.419444444444444,-0.35
7.4222222222222225,-0.36
7.425,-0.365
7.427777777777778,-0.37
7.430555555555555,-0.37
7.433333333333334,-0.365
7.436111111111111,-0.36
7.438888888888889,-0.365
7.441666666666666,-0.37
7.444444444444445,-0.385
7.447222222222222,-0.385
7.45,-0.365
7.4527777777777775,-0.36
7.455555555555556,-0.38
7.458333333333333,-0.385
7.461111111111111,-0.395
7.463888888888889,-0.395
7.466666666666667,-0.385
7.469444444444444,-0.38
7.472222222222222,-0.395
7.475,-0.425
7.477777777777778,-0.465
7.480555555555555,-0.5
7.483333333333333,-0.515
7.486111111111111,-0.53
7.488888888888889,-0.56
7.491666666666666,-0.585
7.4944444444444445,-0.53
7.497222222222222,-0.41
7.5,-0.255
7.502777777777778,-0.105
7.5055555555555555,0.105
7.508333333333334,0.355
7.511111111111111,0.6
7.513888888888889,0.81
7.516666666666667,0.89
7.519444444444445,0.83
7.522222222222222,0.58
7.525,0.185
7.527777777777778,-0.205
7.530555555555556,-0.45
7.533333333333333,-0.525
7.536111111111111,-0.495
7.538888888888889,-0.465
7.541666666666667,-0.435
7.544444444444444,-0.415
7.5472222222222225,-0.415
7.55,-0.415
7.552777777777778,-0.4
7.555555555555555,-0.395
7.558333333333334,-0.405
7.561111111111111,-0.425
7.563888888888889,-0.435
7.566666666666666,-0.415
7.569444444444445,-0.415
7.572222222222222,-0.415
7.575,-0.415
7.5777777777777775,-0.43
7.580555555555556,-0.42
7.583333333333333,-0.41
7.586111111111111,-0.405
7.588888888888889,-0.42
7.591666666666667,-0.41
7.594444444444444,-0.42
7.597222222222222,-0.4
7.6,-0.395
7.602777777777778,-0.385
7.605555555555555,-0.4
7.608333333333333,-0.4
7.611111111111111,-0.4
7.613888888888889,-0.4
7.616666666666666,-0.395
7.6194444444444445,-0.4
7.622222222222222,-0.4
7.625,-0.4
7.627777777777778,-0.41
7.6305555555555555,-0.395
7.633333333333334,-0.41
7.636111111111111,-0.4
7.638888888888889,-0.395
7.641666666666667,-0.405
7.644444444444445,-0.41
7.647222222222222,-0.415
7.65,-0.405
7.652777777777778,-0.4
7.655555555555556,-0.395
7.658333333333333,-0.405
7.661111111111111,-0.415
7.663888888888889,-0.405
7.666666666666667,-0.415
7.669444444444444,-0.41
7.6722222222222225,-0.405
7.675,-0.405
7.677777777777778,-0.41
7.680555555555555,-0.405
7.683333333333334,-0.4
7.686111111111111,-0.395
7.688888888888889,-0.405
7.691666666666666,-0.405
7.694444444444445,-0.4
7.697222222222222,-0.395
7.7,-0.39
7.7027777777777775,-0.395
7.705555555555556,-0.39
7.708333333333333,-0.395
7.711111111111111,-0.42
7.713888888888889,-0.415
7.716666666666667,-0.405
7.719444444444444,-0.4
7.722222222222222,-0.4
7.725,-0.415
7.727777777777778,-0.42
7.730555555555555,-0.41
7.733333333333333,-0.395
7.736111111111111,-0.4
7.738888888888889,-0.405
7.741666666666666,-0.415
7.7444444444444445,-0.435
7.747222222222222,-0.415
7.75,-0.415
7.752777777777778,-0.4
7.7555555555555555,-0.405
7.758333333333334,-0.42
7.761111111111111,-0.43
7.763888888888889,-0.425
7.766666666666667,-0.41
7.769444444444445,-0.41
7.772222222222222,-0.405
7.775,-0.415
7.777777777777778,-0.425
7.780555555555556,-0.425
7.783333333333333,-0.42
7.786111111111111,-0.41
7.788888888888889,-0.41
7.791666666666667,-0.42
7.794444444444444,-0.43
7.7972222222222225,-0.425
7.8,-0.42
7.802777777777778,-0.405
7.805555555555555,-0.415
7.808333333333334,-0.41
7.811111111111111,-0.41
7.813888888888889,-0.385
7.816666666666666,-0.37
7.819444444444445,-0.36
7.822222222222222,-0.35
7.825,-0.35
7.8277777777777775,-0.35
7.830555555555556,-0.335
7.833333333333333,-0.32
7.836111111111111,-0.305
7.838888888888889,-0.315
7.841666666666667,-0.315
7.844444444444444,-0.32
7.847222222222222,-0.305
7.85,-0.305
7.852777777777778,-0.295
7.855555555555555,-0.29
7.858333333333333,-0.295
7.861111111111111,-0.295
7.863888888888889,-0.285
7.866666666666666,-0.285
7.8694444444444445,-0.27
7.872222222222222,-0.28
7.875,-0.28
7.877777777777778,-0.295
7.8805555555555555,-0.28
7.883333333333334,-0.285
7.886111111111111,-0.275
7.888888888888889,-0.285
7.891666666666667,-0.295
7.894444444444445,-0.305
7.897222222222222,-0.295
7.9,-0.285
7.902777777777778,-0.285
7.905555555555556,-0.29
7.908333333333333,-0.3
7.911111111111111,-0.31
7.913888888888889,-0.295
7.916666666666667,-0.3
7.919444444444444,-0.29
7.9222222222222225,-0.285
7.925,-0.305
7.927777777777778,-0.31
7.930555555555555,-0.3
7.933333333333334,-0.295
7.936111111111111,-0.305
7.938888888888889,-0.3
7.941666666666666,-0.305
7.944444444444445,-0.32
7.947222222222222,-0.32
7.95,-0.31
7.9527777777777775,-0.3
7.955555555555556,-0.31
7.958333333333333,-0.32
7.961111111111111,-0.34
7.963888888888889,-0.33
7.966666666666667,-0.31
7.969444444444444,-0.315
7.972222222222222,-0.325
7.975,-0.325
7.977777777777778,-0.345
7.980555555555555,-0.33
7.983333333333333,-0.32
7.986111111111111,-0.32
7.988888888888889,-0.335
7.991666666666666,-0.335
7.9944444444444445,-0.355
7.997222222222222,-0.34
8.0,-0.32
8.002777777777778,-0.315
8.005555555555556,-0.33
8.008333333333333,-0.34
8.011111111111111,-0.34
8.01388888888889,-0.35
8.016666666666667,-0.33
8.019444444444444,-0.33
8.022222222222222,-0.34
8.025,-0.35
8.027777777777779,-0.355
8.030555555555555,-0.345
8.033333333333333,-0.335
8.036111111111111,-0.335
8.03888888888889,-0.34
8.041666666666666,-0.34
8.044444444444444,-0.345
8.047222222222222,-0.335
8.05,-0.335
8.052777777777777,-0.325
8.055555555555555,-0.325
8.058333333333334,-0.335
8.061111111111112,-0.34
8.063888888888888,-0.34
8.066666666666666,-0.32
8.069444444444445,-0.315
8.072222222222223,-0.32
8.075,-0.335
8.077777777777778,-0.335
8.080555555555556,-0.32
8.083333333333334,-0.325
8.08611111111111,-0.315
8.088888888888889,-0.32
8.091666666666667,-0.32
8.094444444444445,-0.345
8.097222222222221,-0.335
8.1,-0.32
8.102777777777778,-0.31
8.105555555555556,-0.32
8.108333333333333,-0.32
8.11111111111111,-0.34
8.113888888888889,-0.33
8.116666666666667,-0.32
8.119444444444444,-0.31
8.122222222222222,-0.31
8.125,-0.31
8.127777777777778,-0.295
8.130555555555556,-0.28
8.133333333333333,-0.255
8.136111111111111,-0.25
8.13888888888889,-0.25
8.141666666666667,-0.255
8.144444444444444,-0.26
8.147222222222222,-0.24
8.15,-0.22
8.152777777777779,-0.23
8.155555555555555,-0.23
8.158333333333333,-0.215
8.161111111111111,-0.22
8.16388888888889,-0.225
8.166666666666666,-0.23
8.169444444444444,-0.23
8.172222222222222,-0.235
8.175,-0.245
8.177777777777777,-0.255
8.180555555555555,-0.24
8.183333333333334,-0.235
8.186111111111112,-0.245
8.188888888888888,-0.235
8.191666666666666,-0.23
8.194444444444445,-0.22
8.197222222222223,-0.195
8.2,-0.22
8.202777777777778,-0.245
8.205555555555556,-0.26
8.208333333333334,-0.27
8.21111111111111,-0.29
8.213888888888889,-0.3
8.216666666666667,-0.305
8.219444444444445,-0.305
8.222222222222221,-0.32
8.225,-0.33
8.227777777777778,-0.35
8.230555555555556,-0.35
8.233333333333333,-0.335
8.23611111111111,-0.335
8.238888888888889,-0.335
8.241666666666667,-0.34
8.244444444444444,-0.35
8.247222222222222,-0.35
8.25,-0.345
8.252777777777778,-0.335
8.255555555555556,-0.345
8.258333333333333,-0.355
8.261111111111111,-0.37
8.26388888888889,-0.35
8.266666666666667,-0.345
8.269444444444444,-0.335
8.272222222222222,-0.335
8.275,-0.335
8.277777777777779,-0.355
8.280555555555555,-0.355
8.283333333333333,-0.345
8.286111111111111,-0.355
8.28888888888889,-0.395
8.291666666666666,-0.45
8.294444444444444,-0.48
8.297222222222222,-0.505
8.3,-0.525
8.302777777777777,-0.545
8.305555555555555,-0.5
8.308333333333334,-0.395
8.311111111111112,-0.255
8.313888888888888,-0.07
8.316666666666666,0.145
8.319444444444445,0.425
8.322222222222223,0.685
8.325,0.875
8.327777777777778,0.925
8.330555555555556,0.795
8.333333333333334,0.47
8.33611111111111,0.02
8.338888888888889,-0.325
8.341666666666667,-0.47
8.344444444444445,-0.485
8.347222222222221,-0.41
8.35,-0.365
8.352777777777778,-0.355
8.355555555555556,-0.365
8.358333333333333,-0.38
8.36111111111111,-0.385
8.363888888888889,-0.38
8.366666666666667,-0.37
8.369444444444444,-0.37
8.372222222222222,-0.375
8.375,-0.385
8.377777777777778,-0.395
8.380555555555556,-0.385
8.383333333333333,-0.38
8.386111111111111,-0.385
8.38888888888889,-0.375
8.391666666666667,-0.39
8.394444444444444,-0.405
8.397222222222222,-0.405
8.4,-0.39
8.402777777777779,-0.385
8.405555555555555,-0.385
8.408333333333333,-0.39
8.411111111111111,-0.41
8.41388888888889,-0.4
8.416666666666666,-0.39
8.419444444444444,-0.385
8.422222222222222,-0.385
8.425,-0.395
8.427777777777777,-0.39
8.430555555555555,-0.395
8.433333333333334,-0.38
8.436111111111112,-0.375
8.438888888888888,-0.38
8.441666666666666,-0.385
8.444444444444445,-0.4
8.447222222222223,-0.385
8.45,-0.38
8.452777777777778,-0.375
8.455555555555556,-0.38
8.458333333333334,-0.395
8.46111111111111,-0.395
8.463888888888889,-0.385
8.466666666666667,-0.375
8.469444444444445,-0.37
8.472222222222221,-0.365
8.475,-0.385
8.477777777777778,-0.395
8.480555555555556,-0.385
8.483333333333333,-0.385
8.48611111111111,-0.37
8.488888888888889,-0.375
8.491666666666667,-0.37
8.494444444444444,-0.375
8.497222222222222,-0.375
8.5,-0.37
8.502777777777778,-0.355
8.505555555555556,-0.365
8.508333333333333,-0.38
8.511111111111111,-0.375
8.51388888888889,-0.37
8.516666666666667,-0.38
8.519444444444444,-0.365
8.522222222222222,-0.37
8.525,-0.375
8.527777777777779,-0.39
8.530555555555555,-0.38
8.533333333333333,-0.375
8.536111111111111,-0.38
8.53888888888889,-0.37
8.541666666666666,-0.375
8.544444444444444,-0.38
8.547222222222222,-0.385
8.55,-0.385
8.552777777777777,-0.37
8.555555555555555,-0.375
8.558333333333334,-0.375
8.561111111111112,-0.38
8.563888888888888,-0.38
8.566666666666666,-0.38
8.569444444444445,-0.38
8.572222222222223,-0.375
8.575,-0.39
8.577777777777778,-0.395
8.580555555555556,-0.385
8.583333333333334,-0.385
8.58611111111111,-0.375
8.588888888888889,-0.375
8.591666666666667,-0.385
8.594444444444445,-0.385
8.597222222222221,-0.39
8.6,-0.37
8.602777777777778,-0.365
8.605555555555556,-0.365
8.608333333333333,-0.375
8.61111111111111,-0.385
8.613888888888889,-0.35
8.616666666666667,-0.345
8.619444444444444,-0.325
8.622222222222222,-0.325
8.625,-0.33
8.627777777777778,-0.325
8.630555555555556,-0.325
8.633333333333333,-0.315
8.636111111111111,-0.315
8.63888888888889,-0.315
8.641666666666667,-0.3
8.644444444444444,-0.3
8.647222222222222,-0.285
8.65,-0.27
8.652777777777779,-0.265
8.655555555555555,-0.26
8.658333333333333,-0.275
8.661111111111111,-0.285
8.66388888888889,-0.265
8.666666666666666,-0.255
8.669444444444444,-0.25
8.672222222222222,-0.27
8.675,-0.28
8.677777777777777,-0.285
8.680555555555555,-0.285
8.683333333333334,-0.28
8.686111111111112,-0.27
8.688888888888888,-0.27
8.691666666666666,-0.27
8.694444444444445,-0.285
8.697222222222223,-0.28
8.7,-0.275
8.702777777777778,-0.27
8.705555555555556,-0.265
8.708333333333334,-0.275
8.71111111111111,-0.29
8.713888888888889,-0.285
8.716666666666667,-0.285
8.719444444444445,-0.275
8.722222222222221,-0.27
8.725,-0.28
8.727777777777778,-0.295
8.730555555555556,-0.28
8.733333333333333,-0.27
8.73611111111111,-0.27
8.738888888888889,-0.275
8.741666666666667,-0.285
8.744444444444444,-0.3
8.747222222222222,-0.295
8.75,-0.29
8.752777777777778,-0.295
8.755555555555556,-0.3
8.758333333333333,-0.29
8.761111111111111,-0.305
8.76388888888889,-0.295
8.766666666666667,-0.29
8.769444444444444,-0.295
8.772222222222222,-0.29
8.775,-0.31
8.777777777777779,-0.32
8.780555555555555,-0.315
8.783333333333333,-0.315
8.786111111111111,-0.3
8.78888888888889,-0.305
8.791666666666666,-0.315
8.794444444444444,-0.33
8.797222222222222,-0.32
8.8,-0.305
8.802777777777777,-0.315
8.805555555555555,-0.305
8.808333333333334,-0.315
8.811111111111112,-0.325
8.813888888888888,-0.31
8.816666666666666,-0.295
8.819444444444445,-0.3
8.822222222222223,-0.305
8.825,-0.31
8.827777777777778,-0.325
8.830555555555556,-0.315
8.833333333333334,-0.315
8.83611111111111,-0.305
8.838888888888889,-0.305
8.841666666666667,-0.325
8.844444444444445,-0.32
8.847222222222221,-0.32
8.85,-0.31
8.852777777777778,-0.305
8.855555555555556,-0.32
8.858333333333333,-0.32
8.86111111111111,-0.32
8.863888888888889,-0.31
8.866666666666667,-0.305
8.869444444444444,-0.29
8.872222222222222,-0.285
8.875,-0.29
8.877777777777778,-0.305
8.880555555555556,-0.31
8.883333333333333,-0.3
8.886111111111111,-0.3
8.88888888888889,-0.31
8.891666666666667,-0.315
8.894444444444444,-0.315
8.897222222222222,-0.31
8.9,-0.295
8.902777777777779,-0.3
8.905555555555555,-0.295
8.908333333333333,-0.315
8.911111111111111,-0.31
8.91388888888889,-0.29
8.916666666666666,-0.265
8.919444444444444,-0.24
8.922222222222222,-0.255
8.925,-0.24
8.927777777777777,-0.25
8.930555555555555,-0.225
8.933333333333334,-0.225
8.936111111111112,-0.215
8.938888888888888,-0.21
8.941666666666666,-0.2
8.944444444444445,-0.195
8.947222222222223,-0.195
8.95,-0.18
8.952777777777778,-0.175
8.955555555555556,-0.18
8.958333333333334,-0.205
8.96111111111111,-0.215
8.963888888888889,-0.21
8.966666666666667,-0.21
8.969444444444445,-0.21
8.972222222222221,-0.21
8.975,-0.215
8.977777777777778,-0.225
8.980555555555556,-0.21
8.983333333333333,-0.18
8.98611111111111,-0.17
8.988888888888889,-0.185
8.991666666666667,-0.24
8.994444444444444,-0.255
8.997222222222222,-0.255
9.0,-0.27
9.002777777777778,-0.275
9.005555555555556,-0.285
9.008333333333333,-0.3
9.011111111111111,-0.3
9.01388888888889,-0.315
9.016666666666667,-0.305
9.019444444444444,-0.3
9.022222222222222,-0.295
9.025,-0.3
9.027777777777779,-0.315
9.030555555555555,-0.31
9.033333333333333,-0.31
9.036111111111111,-0.3
9.03888888888889,-0.3
9.041666666666666,-0.305
9.044444444444444,-0.315
9.047222222222222,-0.325
9.05,-0.32
9.052777777777777,-0.32
9.055555555555555,-0.32
9.058333333333334,-0.325
9.061111111111112,-0.34
9.063888888888888,-0.335
9.066666666666666,-0.325
9.069444444444445,-0.315
9.072222222222223,-0.32
9.075,-0.345
9.077777777777778,-0.37
9.080555555555556,-0.395
9.083333333333334,-0.425
9.08611111111111,-0.445
9.088888888888889,-0.465
9.091666666666667,-0.51
9.094444444444445,-0.53
9.097222222222221,-0.485
9.1,-0.37
9.102777777777778,-0.235
9.105555555555556,-0.09
9.108333333333333,0.105
9.11111111111111,0.375
9.113888888888889,0.655
9.116666666666667,0.82
9.119444444444444,0.865
9.122222222222222,0.735
9.125,0.45
9.127777777777778,0.06
9.130555555555556,-0.27
9.133333333333333,-0.43
9.136111111111111,-0.46
9.13888888888889,-0.415
9.141666666666667,-0.385
9.144444444444444,-0.365
9.147222222222222,-0.355
9.15,-0.355
9.152777777777779,-0.345
9.155555555555555,-0.35
9.158333333333333,-0.35
9.161111111111111,-0.36
9.16388888888889,-0.345
9.166666666666666,-0.34
9.169444444444444,-0.34
9.172222222222222,-0.335
9.175,-0.335
9.177777777777777,-0.355
9.180555555555555,-0.345
9.183333333333334,-0.34
9.186111111111112,-0.335
9.188888888888888,-0.34
9.191666666666666,-0.35
9.194444444444445,-0.365
9.197222222222223,-0.36
9.2,-0.365
9.202777777777778,-0.35
9.205555555555556,-0.345
9.208333333333334,-0.365
9.21111111111111,-0.36
9.213888888888889,-0.35
9.216666666666667,-0.355
9.219444444444445,-0.35
9.222222222222221,-0.355
9.225,-0.35
9.227777777777778,-0.36
9.230555555555556,-0.335
9.233333333333333,-0.335
9.23611111111111,-0.33
9.238888888888889,-0.34
9.241666666666667,-0.35
9.244444444444444,-0.35
9.247222222222222,-0.345
9.25,-0.335
9.252777777777778,-0.345
9.255555555555556,-0.355
9.258333333333333,-0.355
9.261111111111111,-0.37
9.26388888888889,-0.355
9.266666666666667,-0.35
9.269444444444444,-0.345
9.272222222222222,-0.365
9.275,-0.365
9.277777777777779,-0.37
9.280555555555555,-0.365
9.283333333333333,-0.355
9.286111111111111,-0.345
9.28888888888889,-0.345
9.291666666666666,-0.345
9.294444444444444,-0.34
9.297222222222222,-0.335
9.3,-0.325
9.302777777777777,-0.335
9.305555555555555,-0.345
9.308333333333334,-0.35
9.311111111111112,-0.35
9.313888888888888,-0.355
9.316666666666666,-0.355
9.319444444444445,-0.36
9.322222222222223,-0.35
9.325,-0.36
9.327777777777778,-0.365
9.330555555555556,-0.345
9.333333333333334,-0.345
9.33611111111111,-0.33
9.338888888888889,-0.35
9.341666666666667,-0.345
9.344444444444445,-0.355
9.347222222222221,-0.35
9.35,-0.34
9.352777777777778,-0.335
9.355555555555556,-0.35
9.358333333333333,-0.365
9.36111111111111,-0.38
9.363888888888889,-0.385
9.366666666666667,-0.355
9.369444444444444,-0.36
9.372222222222222,-0.355
9.375,-0.37
9.377777777777778,-0.385
9.380555555555556,-0.37
9.383333333333333,-0.37
9.386111111111111,-0.35
9.38888888888889,-0.345
9.391666666666667,-0.365
9.394444444444444,-0.365
9.397222222222222,-0.36
9.4,-0.345
9.402777777777779,-0.33
9.405555555555555,-0.33
9.408333333333333,-0.33
9.411111111111111,-0.335
9.41388888888889,-0.315
9.416666666666666,-0.31
9.419444444444444,-0.285
9.422222222222222,-0.29
9.425,-0.29
9.427777777777777,-0.3
9.430555555555555,-0.28
9.433333333333334,-0.275
9.436111111111112,-0.26
9.438888888888888,-0.26
9.441666666666666,-0.27
9.444444444444445,-0.265
9.447222222222223,-0.255
9.45,-0.25
9.452777777777778,-0.245
9.455555555555556,-0.245
9.458333333333334,-0.255
9.46111111111111,-0.265
9.463888888888889,-0.26
9.466666666666667,-0.255
9.469444444444445,-0.24
9.472222222222221,-0.25
9.475,-0.255
9.477777777777778,-0.275
9.480555555555556,-0.275
9.483333333333333,-0.265
9.48611111111111,-0.27
9.488888888888889,-0.275
9.491666666666667,-0.28
9.494444444444444,-0.29
9.497222222222222,-0.28
9.5,-0.275
9.502777777777778,-0.27
9.505555555555556,-0.27
9.508333333333333,-0.28
9.511111111111111,-0.29
9.51388888888889,-0.28
9.516666666666667,-0.285
9.519444444444444,-0.275
9.522222222222222,-0.29
9.525,-0.28
9.527777777777779,-0.29
9.530555555555555,-0.28
9.533333333333333,-0.285
9.536111111111111,-0.275
9.53888888888889,-0.28
9.541666666666666,-0.295
9.544444444444444,-0.305
9.547222222222222,-0.3
9.55,-0.3
9.552777777777777,-0.305
9.555555555555555,-0.315
9.558333333333334,-0.32
9.561111111111112,-0.31
9.563888888888888,-0.31
9.566666666666666,-0.3
9.569444444444445,-0.31
9.572222222222223,-0.31
9.575,-0.32
9.577777777777778,-0.325
9.580555555555556,-0.31
9.583333333333334,-0.32
9.58611111111111,-0.31
9.588888888888889,-0.31
9.591666666666667,-0.315
9.594444444444445,-0.325
9.597222222222221,-0.315
9.6,-0.305
9.602777777777778,-0.315
9.605555555555556,-0.31
9.608333333333333,-0.32
9.61111111111111,-0.325
9.613888888888889,-0.325
9.616666666666667,-0.32
9.619444444444444,-0.305
9.622222222222222,-0.305
9.625,-0.3
9.627777777777778,-0.315
9.630555555555556,-0.3
9.633333333333333,-0.31
9.636111111111111,-0.315
9.63888888888889,-0.305
9.641666666666667,-0.31
9.644444444444444,-0.32
9.647222222222222,-0.31
9.65,-0.3
9.652777777777779,-0.295
9.655555555555555,-0.3
9.658333333333333,-0.315
9.661111111111111,-0.325
9.66388888888889,-0.325
9.666666666666666,-0.305
9.669444444444444,-0.31
9.672222222222222,-0.29
9.675,-0.315
9.677777777777777,-0.325
9.680555555555555,-0.32
9.683333333333334,-0.29
9.686111111111112,-0.28
9.688888888888888,-0.26
9.691666666666666,-0.26
9.694444444444445,-0.265
9.697222222222223,-0.26
9.7,-0.25
9.702777777777778,-0.23
9.705555555555556,-0.22
9.708333333333334,-0.22
9.71111111111111,-0.235
9.713888888888889,-0.22
9.716666666666667,-0.205
9.719444444444445,-0.205
9.722222222222221,-0.21
9.725,-0.21
9.727777777777778,-0.23
9.730555555555556,-0.24
9.733333333333333,-0.23
9.73611111111111,-0.225
9.738888888888889,-0.235
9.741666666666667,-0.25
9.744444444444444,-0.265
9.747222222222222,-0.26
9.75,-0.245
9.752777777777778,-0.215
9.755555555555556,-0.215
9.758333333333333,-0.245
9.761111111111111,-0.28
9.76388888888889,-0.275
9.766666666666667,-0.275
9.769444444444444,-0.295
9.772222222222222,-0.31
9.775,-0.325
9.777777777777779,-0.34
9.780555555555555,-0.34
9.783333333333333,-0.325
9.786111111111111,-0.315
9.78888888888889,-0.31
9.791666666666666,-0.315
9.794444444444444,-0.33
9.797222222222222,-0.33
9.8,-0.325
9.802777777777777,-0.325
9.805555555555555,-0.335
9.808333333333334,-0.345
9.811111111111112,-0.35
9.813888888888888,-0.35
9.816666666666666,-0.35
9.819444444444445,-0.345
9.822222222222223,-0.35
9.825,-0.365
9.827777777777778,-0.36
9.830555555555556,-0.35
9.833333333333334,-0.355
9.83611111111111,-0.345
9.838888888888889,-0.345
9.841666666666667,-0.35
9.844444444444445,-0.365
9.847222222222221,-0.38
9.85,-0.405
9.852777777777778,-0.425
9.855555555555556,-0.44
9.858333333333333,-0.47
9.86111111111111,-0.52
9.863888888888889,-0.54
9.866666666666667,-0.49
9.869444444444444,-0.39
9.872222222222222,-0.26
9.875,-0.115
9.877777777777778,0.085
9.880555555555556,0.36
9.883333333333333,0.615
9.886111111111111,0.78
9.88888888888889,0.835
9.891666666666667,0.72
9.894444444444444,0.41
9.897222222222222,0.03
9.9,-0.255
9.902777777777779,-0.415
9.905555555555555,-0.47
9.908333333333333,-0.465
9.911111111111111,-0.435
9.91388888888889,-0.395
9.916666666666666,-0.375
9.919444444444444,-0.37
9.922222222222222,-0.375
9.925,-0.375
9.927777777777777,-0.39
9.930555555555555,-0.4
9.933333333333334,-0.38
9.936111111111112,-0.385
9.938888888888888,-0.385
9.941666666666666,-0.385
9.944444444444445,-0.385
9.947222222222223,-0.37
9.95,-0.37
9.952777777777778,-0.36
9.955555555555556,-0.38
9.958333333333334,-0.38
9.96111111111111,-0.385
9.963888888888889,-0.37
9.966666666666667,-0.37
9.969444444444445,-0.365
9.972222222222221,-0.375
9.975,-0.385
9.977777777777778,-0.39
9.980555555555556,-0.39
9.983333333333333,-0.385
9.98611111111111,-0.385
9.988888888888889,-0.395
9.991666666666667,-0.39
9.994444444444444,-0.4
9.997222222222222,-0.405
10.0,-0.39
10.002777777777778,-0.395
10.005555555555556,-0.39
10.008333333333333,-0.405
10.011111111111111,-0.405
10.01388888888889,-0.4
10.016666666666667,-0.375
10.019444444444444,-0.38
10.022222222222222,-0.39
10.025,-0.395
10.027777777777779,-0.395
10.030555555555555,-0.39
10.033333333333333,-0.39
10.036111111111111,-0.385
10.03888888888889,-0.405
10.041666666666666,-0.4
10.044444444444444,-0.405
10.047222222222222,-0.395
10.05,-0.39
10.052777777777777,-0.395
10.055555555555555,-0.39
10.058333333333334,-0.4
10.061111111111112,-0.405
10.063888888888888,-0.405
10.066666666666666,-0.39
10.069444444444445,-0.39
10.072222222222223,-0.395
10.075,-0.4
10.077777777777778,-0.4
10.080555555555556,-0.395
10.083333333333334,-0.38
10.08611111111111,-0.37
10.088888888888889,-0.38
10.091666666666667,-0.385
10.094444444444445,-0.395
10.097222222222221,-0.39
10.1,-0.38
10.102777777777778,-0.38
10.105555555555556,-0.385
10.108333333333333,-0.39
10.11111111111111,-0.39
10.113888888888889,-0.4
10.116666666666667,-0.4
10.119444444444444,-0.405
10.122222222222222,-0.415
10.125,-0.42
10.127777777777778,-0.43
10.130555555555556,-0.43
10.133333333333333,-0.425
10.136111111111111,-0.42
10.13888888888889,-0.43
10.141666666666667,-0.445
10.144444444444444,-0.465
10.147222222222222,-0.455
10.15,-0.44
10.152777777777779,-0.425
10.155555555555555,-0.435
10.158333333333333,-0.45
10.161111111111111,-0.44
10.16388888888889,-0.445
10.166666666666666,-0.425
10.169444444444444,-0.425
10.172222222222222,-0.425
10.175,-0.43
10.177777777777777,-0.43
10.180555555555555,-0.415
10.183333333333334,-0.415
10.186111111111112,-0.385
10.188888888888888,-0.375
10.191666666666666,-0.385
10.194444444444445,-0.37
10.197222222222223,-0.36
10.2,-0.35
10.202777777777778,-0.335
10.205555555555556,-0.335
10.208333333333334,-0.325
10.21111111111111,-0.32
10.213888888888889,-0.325
10.216666666666667,-0.305
10.219444444444445,-0.295
10.222222222222221,-0.3
10.225,-0.29
10.227777777777778,-0.295
10.230555555555556,-0.29
10.233333333333333,-0.29
10.23611111111111,-0.285
10.238888888888889,-0.285
10.241666666666667,-0.285
10.244444444444444,-0.29
10.247222222222222,-0.29
10.25,-0.285
10.252777777777778,-0.27
10.255555555555556,-0.27
10.258333333333333,-0.28
10.261111111111111,-0.29
10.26388888888889,-0.285
10.266666666666667,-0.275
10.269444444444444,-0.275
10.272222222222222,-0.275
10.275,-0.29
10.277777777777779,-0.305
10.280555555555555,-0.305
10.283333333333333,-0.3
10.286111111111111,-0.28
10.28888888888889,-0.29
10.291666666666666,-0.305
10.294444444444444,-0.315
10.297222222222222,-0.31
10.3,-0.295
10.302777777777777,-0.29
10.305555555555555,-0.3
10.308333333333334,-0.305
10.311111111111112,-0.305
10.313888888888888,-0.31
10.316666666666666,-0.3
10.319444444444445,-0.295
10.322222222222223,-0.305
10.325,-0.305
10.327777777777778,-0.315
10.330555555555556,-0.31
10.333333333333334,-0.31
10.33611111111111,-0.295
10.338888888888889,-0.3
10.341666666666667,-0.305
10.344444444444445,-0.31
10.347222222222221,-0.305
10.35,-0.305
10.352777777777778,-0.295
10.355555555555556,-0.3
10.358333333333333,-0.315
10.36111111111111,-0.325
10.363888888888889,-0.32
10.366666666666667,-0.32
10.369444444444444,-0.315
10.372222222222222,-0.31
10.375,-0.325
10.377777777777778,-0.335
10.380555555555556,-0.33
10.383333333333333,-0.32
10.386111111111111,-0.32
10.38888888888889,-0.31
10.391666666666667,-0.33
10.394444444444444,-0.33
10.397222222222222,-0.325
10.4,-0.31
10.402777777777779,-0.305
10.405555555555555,-0.305
10.408333333333333,-0.32
10.411111111111111,-0.33
10.41388888888889,-0.325
10.416666666666666,-0.3
10.419444444444444,-0.31
10.422222222222222,-0.305
10.425,-0.315
10.427777777777777,-0.33
10.430555555555555,-0.33
10.433333333333334,-0.33
10.436111111111112,-0.32
10.438888888888888,-0.325
10.441666666666666,-0.325
10.444444444444445,-0.335
10.447222222222223,-0.325
10.45,-0.315
10.452777777777778,-0.31
10.455555555555556,-0.315
10.458333333333334,-0.32
10.46111111111111,-0.325
10.463888888888889,-0.315
10.466666666666667,-0.31
10.469444444444445,-0.305
10.472222222222221,-0.31
10.475,-0.315
10.477777777777778,-0.32
10.480555555555556,-0.315
10.483333333333333,-0.31
10.48611111111111,-0.295
10.488888888888889,-0.295
10.491666666666667,-0.305
10.494444444444444,-0.31
10.497222222222222,-0.3
10.5,-0.28
10.502777777777778,-0.275
10.505555555555556,-0.265
10.508333333333333,-0.275
10.511111111111111,-0.275
10.51388888888889,-0.26
10.516666666666667,-0.24
10.519444444444444,-0.24
10.522222222222222,-0.235
10.525,-0.24
10.527777777777779,-0.235
10.530555555555555,-0.225
10.533333333333333,-0.215
10.536111111111111,-0.205
10.53888888888889,-0.205
10.541666666666666,-0.21
10.544444444444444,-0.215
10.547222222222222,-0.22
10.55,-0.22
10.552777777777777,-0.215
10.555555555555555,-0.22
10.558333333333334,-0.22
10.561111111111112,-0.23
10.563888888888888,-0.23
10.566666666666666,-0.24
10.569444444444445,-0.21
10.572222222222223,-0.22
10.575,-0.23
10.577777777777778,-0.255
10.580555555555556,-0.235
10.583333333333334,-0.21
10.58611111111111,-0.19
10.588888888888889,-0.205
10.591666666666667,-0.225
10.594444444444445,-0.26
10.597222222222221,-0.275
10.6,-0.28
10.602777777777778,-0.285
10.605555555555556,-0.305
10.608333333333333,-0.32
10.61111111111111,-0.315
10.613888888888889,-0.335
10.616666666666667,-0.325
10.619444444444444,-0.335
10.622222222222222,-0.32
10.625,-0.325
10.627777777777778,-0.32
10.630555555555556,-0.325
10.633333333333333,-0.325
10.636111111111111,-0.31
10.63888888888889,-0.305
10.641666666666667,-0.32
10.644444444444444,-0.32
10.647222222222222,-0.33
10.65,-0.32
10.652777777777779,-0.32
10.655555555555555,-0.33
10.658333333333333,-0.33
10.661111111111111,-0.36
10.66388888888889,-0.355
10.666666666666666,-0.33
10.669444444444444,-0.325
10.672222222222222,-0.325
10.675,-0.335
10.677777777777777,-0.35
10.680555555555555,-0.34
10.683333333333334,-0.345
10.686111111111112,-0.355
10.688888888888888,-0.385
10.691666666666666,-0.425
10.694444444444445,-0.45
10.697222222222223,-0.47
10.7,-0.485
10.702777777777778,-0.51
10.705555555555556,-0.515
10.708333333333334,-0.455
10.71111111111111,-0.325
10.713888888888889,-0.165
10.716666666666667,0.01
10.719444444444445,0.25
10.722222222222221,0.515
10.725,0.74
10.727777777777778,0.885
10.730555555555556,0.935
10.733333333333333,0.835
10.73611111111111,0.525
10.738888888888889,0.12
10.741666666666667,-0.23
10.744444444444444,-0.425
10.747222222222222,-0.455
10.75,-0.42
10.752777777777778,-0.38
10.755555555555556,-0.36
10.758333333333333,-0.365
10.761111111111111,-0.375
10.76388888888889,-0.38
10.766666666666667,-0.355
10.769444444444444,-0.355
10.772222222222222,-0.37
10.775,-0.375
10.777777777777779,-0.385
10.780555555555555,-0.38
10.783333333333333,-0.365
10.786111111111111,-0.37
10.78888888888889,-0.37
10.791666666666666,-0.365
10.794444444444444,-0.38
10.797222222222222,-0.37
10.8,-0.375
10.802777777777777,-0.365
10.805555555555555,-0.37
10.808333333333334,-0.38
10.811111111111112,-0.375
10.813888888888888,-0.365
10.816666666666666,-0.36
10.819444444444445,-0.36
10.822222222222223,-0.355
10.825,-0.355
10.827777777777778,-0.37
10.830555555555556,-0.365
10.833333333333334,-0.355
10.83611111111111,-0.35
10.838888888888889,-0.35
10.841666666666667,-0.35
10.844444444444445,-0.36
10.847222222222221,-0.36
10.85,-0.36
10.852777777777778,-0.35
10.855555555555556,-0.355
10.858333333333333,-0.365
10.86111111111111,-0.37
10.863888888888889,-0.36
10.866666666666667,-0.35
10.869444444444444,-0.355
10.872222222222222,-0.35
10.875,-0.355
10.877777777777778,-0.37
10.880555555555556,-0.375
10.883333333333333,-0.36
10.886111111111111,-0.35
10.88888888888889,-0.345
10.891666666666667,-0.35
10.894444444444444,-0.37
10.897222222222222,-0.37
10.9,-0.355
10.902777777777779,-0.35
10.905555555555555,-0.345
10.908333333333333,-0.36
10.911111111111111,-0.37
10.91388888888889,-0.365
10.916666666666666,-0.36
10.919444444444444,-0.35
10.922222222222222,-0.355
10.925,-0.365
10.927777777777777,-0.365
10.930555555555555,-0.37
10.933333333333334,-0.365
10.936111111111112,-0.35
10.938888888888888,-0.35
10.941666666666666,-0.36
10.944444444444445,-0.36
10.947222222222223,-0.355
10.95,-0.345
10.952777777777778,-0.35
10.955555555555556,-0.345
10.958333333333334,-0.355
10.96111111111111,-0.37
10.963888888888889,-0.365
10.966666666666667,-0.355
10.969444444444445,-0.36
10.972222222222221,-0.365
10.975,-0.365
10.977777777777778,-0.38
10.980555555555556,-0.385
10.983333333333333,-0.375
10.98611111111111,-0.37
10.988888888888889,-0.375
10.991666666666667,-0.385
10.994444444444444,-0.395
10.997222222222222,-0.375
11.0,-0.385
11.002777777777778,-0.38
11.005555555555556,-0.37
11.008333333333333,-0.385
11.011111111111111,-0.385
11.01388888888889,-0.38
11.016666666666667,-0.37
11.019444444444444,-0.36
11.022222222222222,-0.35
11.025,-0.335
11.027777777777779,-0.33
11.030555555555555,-0.315
11.033333333333333,-0.295
11.036111111111111,-0.29
11.03888888888889,-0.29
11.041666666666666,-0.285
11.044444444444444,-0.29
11.047222222222222,-0.28
11.05,-0.28
11.052777777777777,-0.26
11.055555555555555,-0.255
11.058333333333334,-0.27
11.061111111111112,-0.275
11.063888888888888,-0.26
11.066666666666666,-0.25
11.069444444444445,-0.245
11.072222222222223,-0.25
11.075,-0.26
11.077777777777778,-0.265
11.080555555555556,-0.245
11.083333333333334,-0.235
11.08611111111111,-0.245
11.088888888888889,-0.24
11.091666666666667,-0.25
11.094444444444445,-0.265
11.097222222222221,-0.25
11.1,-0.25
11.102777777777778,-0.25
11.105555555555556,-0.25
11.108333333333333,-0.255
11.11111111111111,-0.265
11.113888888888889,-0.26
11.116666666666667,-0.24
11.119444444444444,-0.25
11.122222222222222,-0.245
11.125,-0.25
11.127777777777778,-0.27
11.130555555555556,-0.265
11.133333333333333,-0.27
11.136111111111111,-0.265
11.13888888888889,-0.265
11.141666666666667,-0.275
11.144444444444444,-0.285
11.147222222222222,-0.275
11.15,-0.265
11.152777777777779,-0.27
11.155555555555555,-0.27
11.158333333333333,-0.28
11.161111111111111,-0.285
11.16388888888889,-0.285
11.166666666666666,-0.28
11.169444444444444,-0.285
11.172222222222222,-0.28
11.175,-0.285
11.177777777777777,-0.3
11.180555555555555,-0.29
11.183333333333334,-0.285
11.186111111111112,-0.27
11.188888888888888,-0.28
11.191666666666666,-0.295
11.194444444444445,-0.29
11.197222222222223,-0.29
11.2,-0.295
11.202777777777778,-0.29
11.205555555555556,-0.285
11.208333333333334,-0.305
11.21111111111111,-0.315
11.213888888888889,-0.31
11.216666666666667,-0.31
11.219444444444445,-0.29
11.222222222222221,-0.295
11.225,-0.31
11.227777777777778,-0.32
11.230555555555556,-0.315
11.233333333333333,-0.31
11.23611111111111,-0.3
11.238888888888889,-0.3
11.241666666666667,-0.315
11.244444444444444,-0.32
11.247222222222222,-0.315
11.25,-0.32
11.252777777777778,-0.29
11.255555555555556,-0.3
11.258333333333333,-0.3
11.261111111111111,-0.315
11.26388888888889,-0.31
11.266666666666667,-0.3
11.269444444444444,-0.3
11.272222222222222,-0.29
11.275,-0.31
11.277777777777779,-0.325
11.280555555555555,-0.315
11.283333333333333,-0.305
11.286111111111111,-0.305
11.28888888888889,-0.305
11.291666666666666,-0.315
11.294444444444444,-0.325
11.297222222222222,-0.32
11.3,-0.31
11.302777777777777,-0.3
11.305555555555555,-0.295
11.308333333333334,-0.315
11.311111111111112,-0.32
11.313888888888888,-0.305
11.316666666666666,-0.3
11.319444444444445,-0.29
11.322222222222223,-0.295
11.325,-0.295
11.327777777777778,-0.31
11.330555555555556,-0.295
11.333333333333334,-0.295
11.33611111111111,-0.285
11.338888888888889,-0.295
11.341666666666667,-0.295
11.344444444444445,-0.31
11.347222222222221,-0.3
11.35,-0.285
11.352777777777778,-0.28
11.355555555555556,-0.275
11.358333333333333,-0.28
11.36111111111111,-0.265
11.363888888888889,-0.245
11.366666666666667,-0.23
11.369444444444444,-0.24
11.372222222222222,-0.24
11.375,-0.24
11.377777777777778,-0.245
11.380555555555556,-0.22
11.383333333333333,-0.22
11.386111111111111,-0.215
11.38888888888889,-0.2
11.391666666666667,-0.2
11.394444444444444,-0.21
11.397222222222222,-0.205
11.4,-0.195
11.402777777777779,-0.205
11.405555555555555,-0.21
11.408333333333333,-0.215
11.411111111111111,-0.225
11.41388888888889,-0.225
11.416666666666666,-0.2
11.419444444444444,-0.2
11.422222222222222,-0.21
11.425,-0.225
11.427777777777777,-0.22
11.430555555555555,-0.195
11.433333333333334,-0.18
11.436111111111112,-0.175
11.438888888888888,-0.205
11.441666666666666,-0.245
11.444444444444445,-0.265
11.447222222222223,-0.275
11.45,-0.28
11.452777777777778,-0.285
11.455555555555556,-0.3
11.458333333333334,-0.31
11.46111111111111,-0.325
11.463888888888889,-0.32
11.466666666666667,-0.325
11.469444444444445,-0.31
11.472222222222221,-0.325
11.475,-0.33
11.477777777777778,-0.34
11.480555555555556,-0.335
11.483333333333333,-0.33
11.48611111111111,-0.325
11.488888888888889,-0.32
11.491666666666667,-0.34
11.494444444444444,-0.345
11.497222222222222,-0.34
11.5,-0.33
11.502777777777778,-0.335
11.505555555555556,-0.33
11.508333333333333,-0.34
11.511111111111111,-0.34
11.51388888888889,-0.335
11.516666666666667,-0.335
11.519444444444444,-0.33
11.522222222222222,-0.335
11.525,-0.345
11.527777777777779,-0.375
11.530555555555555,-0.395
11.533333333333333,-0.43
11.536111111111111,-0.44
11.53888888888889,-0.45
11.541666666666666,-0.45
11.544444444444444,-0.475
11.547222222222222,-0.48
11.55,-0.51
11.552777777777777,-0.55
11.555555555555555,-0.575
11.558333333333334,-0.545
11.561111111111112,-0.49
11.563888888888888,-0.375
11.566666666666666,-0.25
11.569444444444445,-0.12
11.572222222222223,0.06
11.575,0.285
11.577777777777778,0.525
11.580555555555556,0.74
11.583333333333334,0.86
11.58611111111111,0.89
11.588888888888889,0.73
11.591666666666667,0.425
11.594444444444445,0.015
11.597222222222221,-0.285
11.6,-0.435
11.602777777777778,-0.45
11.605555555555556,-0.435
11.608333333333333,-0.385
11.61111111111111,-0.38
11.613888888888889,-0.37
11.616666666666667,-0.37
11.619444444444444,-0.37
11.622222222222222,-0.36
11.625,-0.36
11.627777777777778,-0.37
11.630555555555556,-0.385
11.633333333333333,-0.365
11.636111111111111,-0.36
11.63888888888889,-0.365
11.641666666666667,-0.365
11.644444444444444,-0.375
11.647222222222222,-0.385
11.65,-0.36
11.652777777777779,-0.365
11.655555555555555,-0.355
11.658333333333333,-0.375
11.661111111111111,-0.38
11.66388888888889,-0.375
11.666666666666666,-0.355
11.669444444444444,-0.355
11.672222222222222,-0.36
11.675,-0.365
11.677777777777777,-0.38
11.680555555555555,-0.37
11.683333333333334,-0.355
11.686111111111112,-0.35
11.688888888888888,-0.355
11.691666666666666,-0.365
11.694444444444445,-0.38
11.697222222222223,-0.365
11.7,-0.355
11.702777777777778,-0.355
11.705555555555556,-0.365
11.708333333333334,-0.385
11.71111111111111,-0.39
11.713888888888889,-0.375
11.716666666666667,-0.355
11.719444444444445,-0.365
11.722222222222221,-0.36
11.725,-0.355
11.727777777777778,-0.365
11.730555555555556,-0.365
11.733333333333333,-0.355
11.73611111111111,-0.345
11.738888888888889,-0.345
11.741666666666667,-0.365
11.744444444444444,-0.36
11.747222222222222,-0.375
11.75,-0.355
11.752777777777778,-0.36
11.755555555555556,-0.365
11.758333333333333,-0.365
11.761111111111111,-0.37
11.76388888888889,-0.36
11.766666666666667,-0.355
11.769444444444444,-0.36
11.772222222222222,-0.365
11.775,-0.385
11.777777777777779,-0.38
11.780555555555555,-0.365
11.783333333333333,-0.355
11.786111111111111,-0.335
11.78888888888889,-0.36
11.791666666666666,-0.36
11.794444444444444,-0.385
11.797222222222222,-0.38
11.8,-0.375
11.802777777777777,-0.36
11.805555555555555,-0.36
11.808333333333334,-0.365
11.811111111111112,-0.375
11.813888888888888,-0.365
11.816666666666666,-0.355
11.819444444444445,-0.36
11.822222222222223,-0.35
11.825,-0.36
11.827777777777778,-0.37
11.830555555555556,-0.37
11.833333333333334,-0.365
11.83611111111111,-0.37
11.838888888888889,-0.38
11.841666666666667,-0.39
11.844444444444445,-0.385
11.847222222222221,-0.38
11.85,-0.37
11.852777777777778,-0.37
11.855555555555556,-0.365
11.858333333333333,-0.365
11.86111111111111,-0.39
11.863888888888889,-0.375
11.866666666666667,-0.37
11.869444444444444,-0.355
11.872222222222222,-0.365
11.875,-0.36
11.877777777777778,-0.37
11.880555555555556,-0.35
11.883333333333333,-0.34
11.886111111111111,-0.325
11.88888888888889,-0.32
11.891666666666667,-0.315
11.894444444444444,-0.325
11.897222222222222,-0.31
11.9,-0.295
11.902777777777779,-0.285
11.905555555555555,-0.29
11.908333333333333,-0.29
11.911111111111111,-0.275
11.91388888888889,-0.27
11.916666666666666,-0.265
11.919444444444444,-0.26
11.922222222222222,-0.26
11.925,-0.275
11.927777777777777,-0.275
11.930555555555555,-0.285
11.933333333333334,-0.26
11.936111111111112,-0.26
11.938888888888888,-0.265
11.941666666666666,-0.27
11.944444444444445,-0.28
11.947222222222223,-0.275
11.95,-0.255
11.952777777777778,-0.255
11.955555555555556,-0.245
11.958333333333334,-0.255
11.96111111111111,-0.26
11.963888888888889,-0.255
11.966666666666667,-0.255
11.969444444444445,-0.26
11.972222222222221,-0.265
11.975,-0.28
11.977777777777778,-0.295
11.980555555555556,-0.29
11.983333333333333,-0.275
11.98611111111111,-0.28
11.988888888888889,-0.28
11.991666666666667,-0.28
11.994444444444444,-0.285
11.997222222222222,-0.285
12.0,-0.28
12.002777777777778,-0.27
12.005555555555556,-0.285
12.008333333333333,-0.3
12.011111111111111,-0.31
12.01388888888889,-0.3
12.016666666666667,-0.29
12.019444444444444,-0.28
12.022222222222222,-0.3
12.025,-0.29
12.027777777777779,-0.31
12.030555555555555,-0.3
12.033333333333333,-0.295
12.036111111111111,-0.29
12.03888888888889,-0.285
12.041666666666666,-0.295
12.044444444444444,-0.325
12.047222222222222,-0.315
12.05,-0.31
12.052777777777777,-0.305
12.055555555555555,-0.3
12.058333333333334,-0.315
12.061111111111112,-0.33
12.063888888888888,-0.32
12.066666666666666,-0.32
12.069444444444445,-0.315
12.072222222222223,-0.32
12.075,-0.325
12.077777777777778,-0.335
12.080555555555556,-0.33
12.083333333333334,-0.325
12.08611111111111,-0.31
12.088888888888889,-0.315
12.091666666666667,-0.315
12.094444444444445,-0.335
12.097222222222221,-0.32
12.1,-0.31
12.102777777777778,-0.315
12.105555555555556,-0.31
12.108333333333333,-0.32
12.11111111111111,-0.335
12.113888888888889,-0.325
12.116666666666667,-0.325
12.119444444444444,-0.315
12.122222222222222,-0.31
12.125,-0.32
12.127777777777778,-0.33
12.130555555555556,-0.32
12.133333333333333,-0.32
12.136111111111111,-0.31
12.13888888888889,-0.33
12.141666666666667,-0.33
12.144444444444444,-0.345
12.147222222222222,-0.34
12.15,-0.33
12.152777777777779,-0.32
12.155555555555555,-0.315
12.158333333333333,-0.335
12.161111111111111,-0.335
12.16388888888889,-0.33
12.166666666666666,-0.31
12.169444444444444,-0.31
12.172222222222222,-0.315
12.175,-0.33
12.177777777777777,-0.32
12.180555555555555,-0.315
12.183333333333334,-0.3
12.186111111111112,-0.285
12.188888888888888,-0.28
12.191666666666666,-0.265
12.194444444444445,-0.26
12.197222222222223,-0.265
12.2,-0.26
12.202777777777778,-0.255
12.205555555555556,-0.26
12.208333333333334,-0.25
12.21111111111111,-0.255
12.213888888888889,-0.24
12.216666666666667,-0.23
12.219444444444445,-0.205
12.222222222222221,-0.21
12.225,-0.225
12.227777777777778,-0.235
12.230555555555556,-0.225
12.233333333333333,-0.225
12.23611111111111,-0.23
12.238888888888889,-0.225
12.241666666666667,-0.24
12.244444444444444,-0.24
12.247222222222222,-0.23
12.25,-0.235
12.252777777777778,-0.25
12.255555555555556,-0.25
12.258333333333333,-0.255
12.261111111111111,-0.235
12.26388888888889,-0.22
12.266666666666667,-0.205
12.269444444444444,-0.215
12.272222222222222,-0.24
12.275,-0.265
12.277777777777779,-0.28
12.280555555555555,-0.28
12.283333333333333,-0.27
12.286111111111111,-0.27
12.28888888888889,-0.29
12.291666666666666,-0.32
12.294444444444444,-0.335
12.297222222222222,-0.34
12.3,-0.33
12.302777777777777,-0.33
12.305555555555555,-0.335
12.308333333333334,-0.35
12.311111111111112,-0.36
12.313888888888888,-0.35
12.316666666666666,-0.35
12.319444444444445,-0.345
12.322222222222223,-0.35
12.325,-0.355
12.327777777777778,-0.365
12.330555555555556,-0.36
12.333333333333334,-0.355
12.33611111111111,-0.35
12.338888888888889,-0.34
12.341666666666667,-0.36
12.344444444444445,-0.37
12.347222222222221,-0.37
12.35,-0.355
12.352777777777778,-0.345
12.355555555555556,-0.35
12.358333333333333,-0.37
12.36111111111111,-0.385
12.363888888888889,-0.41
12.366666666666667,-0.44
12.369444444444444,-0.46
12.372222222222222,-0.49
12.375,-0.54
12.377777777777778,-0.565
12.380555555555556,-0.55
12.383333333333333,-0.485
12.386111111111111,-0.365
12.38888888888889,-0.255
12.391666666666667,-0.125
12.394444444444444,0.09
12.397222222222222,0.36
12.4,0.6
12.402777777777779,0.75
12.405555555555555,0.795
12.408333333333333,0.7
12.411111111111111,0.44
12.41388888888889,0.095
12.416666666666666,-0.185
12.419444444444444,-0.37
12.422222222222222,-0.47
12.425,-0.49
12.427777777777777,-0.47
12.430555555555555,-0.44
12.433333333333334,-0.425
12.436111111111112,-0.41
12.438888888888888,-0.41
12.441666666666666,-0.41
12.444444444444445,-0.42
12.447222222222223,-0.4
12.45,-0.395
12.452777777777778,-0.405
12.455555555555556,-0.41
12.458333333333334,-0.405
12.46111111111111,-0.42
12.463888888888889,-0.395
12.466666666666667,-0.395
12.469444444444445,-0.39
12.472222222222221,-0.395
12.475,-0.395
12.477777777777778,-0.41
12.480555555555556,-0.4
12.483333333333333,-0.4
12.48611111111111,-0.41
12.488888888888889,-0.4
12.491666666666667,-0.405
12.494444444444444,-0.41
12.497222222222222,-0.41
12.5,-0.4
12.502777777777778,-0.39
12.505555555555556,-0.39
12.508333333333333,-0.4
12.511111111111111,-0.4
12.51388888888889,-0.395
12.516666666666667,-0.39
12.519444444444444,-0.385
12.522222222222222,-0.39
12.525,-0.41
12.527777777777779,-0.41
12.530555555555555,-0.41
12.533333333333333,-0.415
12.536111111111111,-0.41
12.53888888888889,-0.405
12.541666666666666,-0.42
12.544444444444444,-0.42
12.547222222222222,-0.42
12.55,-0.415
12.552777777777777,-0.41
12.555555555555555,-0.415
12.558333333333334,-0.425
12.561111111111112,-0.425
12.563888888888888,-0.42
12.566666666666666,-0.425
12.569444444444445,-0.42
12.572222222222223,-0.41
12.575,-0.41
12.577777777777778,-0.415
12.580555555555556,-0.41
12.583333333333334,-0.41
12.58611111111111,-0.4
12.588888888888889,-0.405
12.591666666666667,-0.405
12.594444444444445,-0.425
12.597222222222221,-0.42
12.6,-0.41
12.602777777777778,-0.4
12.605555555555556,-0.405
12.608333333333333,-0.415
12.61111111111111,-0.42
12.613888888888889,-0.41
12.616666666666667,-0.41
12.619444444444444,-0.4
12.622222222222222,-0.41
12.625,-0.415
12.627777777777778,-0.42
12.630555555555556,-0.41
12.633333333333333,-0.4
12.636111111111111,-0.39
12.63888888888889,-0.4
12.641666666666667,-0.415
12.644444444444444,-0.42
12.647222222222222,-0.415
12.65,-0.415
12.652777777777779,-0.4
12.655555555555555,-0.415
12.658333333333333,-0.43
12.661111111111111,-0.45
12.66388888888889,-0.44
12.666666666666666,-0.44
12.669444444444444,-0.435
12.672222222222222,-0.435
12.675,-0.44
12.677777777777777,-0.45
12.680555555555555,-0.435
12.683333333333334,-0.44
12.686111111111112,-0.43
12.688888888888888,-0.44
12.691666666666666,-0.445
12.694444444444445,-0.445
12.697222222222223,-0.44
12.7,-0.435
12.702777777777778,-0.42
12.705555555555556,-0.415
12.708333333333334,-0.41
12.71111111111111,-0.405
12.713888888888889,-0.38
12.716666666666667,-0.375
12.719444444444445,-0.37
12.722222222222221,-0.37
12.725,-0.37
12.727777777777778,-0.36
12.730555555555556,-0.355
12.733333333333333,-0.325
12.73611111111111,-0.305
12.738888888888889,-0.31
12.741666666666667,-0.32
12.744444444444444,-0.325
12.747222222222222,-0.325
12.75,-0.315
12.752777777777778,-0.3
12.755555555555556,-0.305
12.758333333333333,-0.32
12.761111111111111,-0.33
12.76388888888889,-0.33
12.766666666666667,-0.31
12.769444444444444,-0.31
12.772222222222222,-0.31
12.775,-0.305
12.777777777777779,-0.31
12.780555555555555,-0.32
12.783333333333333,-0.305
12.786111111111111,-0.3
12.78888888888889,-0.3
12.791666666666666,-0.305
12.794444444444444,-0.32
12.797222222222222,-0.32
12.8,-0.315
12.802777777777777,-0.315
12.805555555555555,-0.31
12.808333333333334,-0.33
12.811111111111112,-0.335
12.813888888888888,-0.335
12.816666666666666,-0.32
12.819444444444445,-0.315
12.822222222222223,-0.315
12.825,-0.325
12.827777777777778,-0.33
12.830555555555556,-0.335
12.833333333333334,-0.32
12.83611111111111,-0.3
12.838888888888889,-0.3
12.841666666666667,-0.32
12.844444444444445,-0.32
12.847222222222221,-0.33
12.85,-0.32
12.852777777777778,-0.32
12.855555555555556,-0.325
12.858333333333333,-0.34
12.86111111111111,-0.355
12.863888888888889,-0.345
12.866666666666667,-0.35
12.869444444444444,-0.345
12.872222222222222,-0.345
12.875,-0.36
12.877777777777778,-0.36
12.880555555555556,-0.345
12.883333333333333,-0.34
12.886111111111111,-0.34
12.88888888888889,-0.355
12.891666666666667,-0.35
12.894444444444444,-0.35
12.897222222222222,-0.355
12.9,-0.34
12.902777777777779,-0.335
12.905555555555555,-0.34
12.908333333333333,-0.35
12.911111111111111,-0.355
12.91388888888889,-0.355
12.916666666666666,-0.355
12.919444444444444,-0.345
12.922222222222222,-0.345
12.925,-0.35
12.927777777777777,-0.36
12.930555555555555,-0.365
12.933333333333334,-0.365
12.936111111111112,-0.35
12.938888888888888,-0.35
12.941666666666666,-0.36
12.944444444444445,-0.37
12.947222222222223,-0.36
12.95,-0.35
12.952777777777778,-0.335
12.955555555555556,-0.35
12.958333333333334,-0.35
12.96111111111111,-0.345
12.963888888888889,-0.34
12.966666666666667,-0.34
12.969444444444445,-0.34
12.972222222222221,-0.34
12.975,-0.345
12.977777777777778,-0.35
12.980555555555556,-0.36
12.983333333333333,-0.35
12.98611111111111,-0.335
12.988888888888889,-0.345
12.991666666666667,-0.35
12.994444444444444,-0.35
12.997222222222222,-0.355
13.0,-0.34
13.002777777777778,-0.335
13.005555555555556,-0.33
13.008333333333333,-0.34
13.011111111111111,-0.355
13.01388888888889,-0.355
13.016666666666667,-0.33
13.019444444444444,-0.315
13.022222222222222,-0.315
13.025,-0.315
13.027777777777779,-0.32
13.030555555555555,-0.3
13.033333333333333,-0.3
13.036111111111111,-0.28
13.03888888888889,-0.265
13.041666666666666,-0.28
13.044444444444444,-0.285
13.047222222222222,-0.265
13.05,-0.235
13.052777777777777,-0.23
13.055555555555555,-0.23
13.058333333333334,-0.245
13.061111111111112,-0.255
13.063888888888888,-0.25
13.066666666666666,-0.245
13.069444444444445,-0.25
13.072222222222223,-0.255
13.075,-0.265
13.077777777777778,-0.27
13.080555555555556,-0.29
13.083333333333334,-0.28
13.08611111111111,-0.275
13.088888888888889,-0.26
13.091666666666667,-0.255
13.094444444444445,-0.26
13.097222222222221,-0.275
13.1,-0.295
13.102777777777778,-0.3
13.105555555555556,-0.305
13.108333333333333,-0.335
13.11111111111111,-0.355
13.113888888888889,-0.35
13.116666666666667,-0.35
13.119444444444444,-0.35
13.122222222222222,-0.355
13.125,-0.37
13.127777777777778,-0.37
13.130555555555556,-0.36
13.133333333333333,-0.365
13.136111111111111,-0.355
13.13888888888889,-0.365
13.141666666666667,-0.375
13.144444444444444,-0.385
13.147222222222222,-0.38
13.15,-0.375
13.152777777777779,-0.355
13.155555555555555,-0.37
13.158333333333333,-0.385
13.161111111111111,-0.39
13.16388888888889,-0.39
13.166666666666666,-0.37
13.169444444444444,-0.36
13.172222222222222,-0.37
13.175,-0.38
13.177777777777777,-0.385
13.180555555555555,-0.38
13.183333333333334,-0.375
13.186111111111112,-0.37
13.188888888888888,-0.38
13.191666666666666,-0.405
13.194444444444445,-0.445
13.197222222222223,-0.465
13.2,-0.48
13.202777777777778,-0.485
13.205555555555556,-0.525
13.208333333333334,-0.555
13.21111111111111,-0.535
13.213888888888889,-0.45
13.216666666666667,-0.325
13.219444444444445,-0.185
13.222222222222221,-0.025
13.225,0.185
13.227777777777778,0.43
13.230555555555556,0.66
13.233333333333333,0.815
13.23611111111111,0.85
13.238888888888889,0.75
13.241666666666667,0.485
13.244444444444444,0.11
13.247222222222222,-0.21
13.25,-0.39
13.252777777777778,-0.46
13.255555555555556,-0.485
13.258333333333333,-0.47
13.261111111111111,-0.45
13.26388888888889,-0.425
13.266666666666667,-0.415
13.269444444444444,-0.405
13.272222222222222,-0.415
13.275,-0.415
13.277777777777779,-0.42
13.280555555555555,-0.4
13.283333333333333,-0.395
13.286111111111111,-0.385
13.28888888888889,-0.395
13.291666666666666,-0.4
13.294444444444444,-0.42
13.297222222222222,-0.41
13.3,-0.4
13.302777777777777,-0.4
13.305555555555555,-0.405
13.308333333333334,-0.405
13.311111111111112,-0.435
13.313888888888888,-0.42
13.316666666666666,-0.41
13.319444444444445,-0.405
13.322222222222223,-0.415
13.325,-0.43
13.327777777777778,-0.44
13.330555555555556,-0.435
13.333333333333334,-0.415
13.33611111111111,-0.42
13.338888888888889,-0.43
13.341666666666667,-0.415
13.344444444444445,-0.43
13.347222222222221,-0.425
13.35,-0.42
13.352777777777778,-0.42
13.355555555555556,-0.415
13.358333333333333,-0.425
13.36111111111111,-0.425
13.363888888888889,-0.42
13.366666666666667,-0.41
13.369444444444444,-0.41
13.372222222222222,-0.41
13.375,-0.42
13.377777777777778,-0.43
13.380555555555556,-0.42
13.383333333333333,-0.415
13.386111111111111,-0.395
13.38888888888889,-0.405
13.391666666666667,-0.415
13.394444444444444,-0.43
13.397222222222222,-0.42
13.4,-0.42
13.402777777777779,-0.415
13.405555555555555,-0.42
13.408333333333333,-0.425
13.411111111111111,-0.44
13.41388888888889,-0.43
13.416666666666666,-0.425
13.419444444444444,-0.415
13.422222222222222,-0.42
13.425,-0.425
13.427777777777777,-0.44
13.430555555555555,-0.43
13.433333333333334,-0.43
13.436111111111112,-0.425
13.438888888888888,-0.42
13.441666666666666,-0.415
13.444444444444445,-0.425
13.447222222222223,-0.43
13.45,-0.425
13.452777777777778,-0.415
13.455555555555556,-0.405
13.458333333333334,-0.405
13.46111111111111,-0.425
13.463888888888889,-0.415
13.466666666666667,-0.42
13.469444444444445,-0.42
13.472222222222221,-0.42
13.475,-0.435
13.477777777777778,-0.435
13.480555555555556,-0.44
13.483333333333333,-0.42
13.48611111111111,-0.43
13.488888888888889,-0.45
13.491666666666667,-0.455
13.494444444444444,-0.465
13.497222222222222,-0.465
13.5,-0.465
13.502777777777778,-0.465
13.505555555555556,-0.465
13.508333333333333,-0.47
13.511111111111111,-0.49
13.51388888888889,-0.485
13.516666666666667,-0.46
13.519444444444444,-0.455
13.522222222222222,-0.46
13.525,-0.455
13.527777777777779,-0.455
13.530555555555555,-0.44
13.533333333333333,-0.425
13.536111111111111,-0.415
13.53888888888889,-0.4
13.541666666666666,-0.405
13.544444444444444,-0.4
13.547222222222222,-0.385
13.55,-0.365
13.552777777777777,-0.365
13.555555555555555,-0.36
13.558333333333334,-0.37
13.561111111111112,-0.375
13.563888888888888,-0.355
13.566666666666666,-0.34
13.569444444444445,-0.33
13.572222222222223,-0.33
13.575,-0.33
13.577777777777778,-0.34
13.580555555555556,-0.335
13.583333333333334,-0.32
13.58611111111111,-0.305
13.588888888888889,-0.315
13.591666666666667,-0.32
13.594444444444445,-0.32
13.597222222222221,-0.32
13.6,-0.315
13.602777777777778,-0.31
13.605555555555556,-0.31
13.608333333333333,-0.315
13.61111111111111,-0.33
13.613888888888889,-0.32
13.616666666666667,-0.32
13.619444444444444,-0.31
13.622222222222222,-0.32
13.625,-0.33
13.627777777777778,-0.34
13.630555555555556,-0.33
13.633333333333333,-0.325
13.636111111111111,-0.325
13.63888888888889,-0.32
13.641666666666667,-0.34
13.644444444444444,-0.35
13.647222222222222,-0.34
13.65,-0.32
13.652777777777779,-0.315
13.655555555555555,-0.325
13.658333333333333,-0.34
13.661111111111111,-0.345
13.66388888888889,-0.345
13.666666666666666,-0.34
13.669444444444444,-0.33
13.672222222222222,-0.335
13.675,-0.345
13.677777777777777,-0.36
13.680555555555555,-0.355
13.683333333333334,-0.34
13.686111111111112,-0.33
13.688888888888888,-0.335
13.691666666666666,-0.345
13.694444444444445,-0.365
13.697222222222223,-0.37
13.7,-0.35
13.702777777777778,-0.34
13.705555555555556,-0.335
13.708333333333334,-0.36
13.71111111111111,-0.355
13.713888888888889,-0.34
13.716666666666667,-0.335
13.719444444444445,-0.335
13.722222222222221,-0.32
13.725,-0.335
13.727777777777778,-0.355
13.730555555555556,-0.35
13.733333333333333,-0.345
13.73611111111111,-0.34
13.738888888888889,-0.335
13.741666666666667,-0.35
13.744444444444444,-0.37
13.747222222222222,-0.36
13.75,-0.355
13.752777777777778,-0.35
13.755555555555556,-0.345
13.758333333333333,-0.365
13.761111111111111,-0.36
13.76388888888889,-0.36
13.766666666666667,-0.35
13.769444444444444,-0.345
13.772222222222222,-0.355
13.775,-0.355
13.777777777777779,-0.365
13.780555555555555,-0.36
13.783333333333333,-0.345
13.786111111111111,-0.345
13.78888888888889,-0.35
13.791666666666666,-0.355
13.794444444444444,-0.36
13.797222222222222,-0.355
13.8,-0.35
13.802777777777777,-0.335
13.805555555555555,-0.335
13.808333333333334,-0.355
13.811111111111112,-0.345
13.813888888888888,-0.34
13.816666666666666,-0.33
13.819444444444445,-0.34
13.822222222222223,-0.345
13.825,-0.35
13.827777777777778,-0.355
13.830555555555556,-0.35
13.833333333333334,-0.335
13.83611111111111,-0.33
13.838888888888889,-0.33
13.841666666666667,-0.33
13.844444444444445,-0.33
13.847222222222221,-0.305
13.85,-0.285
13.852777777777778,-0.275
13.855555555555556,-0.28
13.858333333333333,-0.285
13.86111111111111,-0.29
13.863888888888889,-0.275
13.866666666666667,-0.26
13.869444444444444,-0.245
13.872222222222222,-0.24
13.875,-0.24
13.877777777777778,-0.24
13.880555555555556,-0.235
13.883333333333333,-0.225
13.886111111111111,-0.22
13.88888888888889,-0.23
13.891666666666667,-0.24
13.894444444444444,-0.255
13.897222222222222,-0.255
13.9,-0.24
13.902777777777779,-0.24
13.905555555555555,-0.25
13.908333333333333,-0.27
13.911111111111111,-0.27
13.91388888888889,-0.24
13.916666666666666,-0.23
13.919444444444444,-0.225
13.922222222222222,-0.265
13.925,-0.295
13.927777777777777,-0.305
13.930555555555555,-0.325
13.933333333333334,-0.315
13.936111111111112,-0.325
13.938888888888888,-0.33
13.941666666666666,-0.345
13.944444444444445,-0.36
13.947222222222223,-0.365
13.95,-0.355
13.952777777777778,-0.345
13.955555555555556,-0.34
13.958333333333334,-0.335
13.96111111111111,-0.36
13.963888888888889,-0.355
13.966666666666667,-0.345
13.969444444444445,-0.335
13.972222222222221,-0.355
13.975,-0.35
13.977777777777778,-0.375
13.980555555555556,-0.375
13.983333333333333,-0.365
13.98611111111111,-0.365
13.988888888888889,-0.35
13.991666666666667,-0.37
13.994444444444444,-0.38
13.997222222222222,-0.365
14.0,-0.37
14.002777777777778,-0.355
14.005555555555556,-0.37
14.008333333333333,-0.38
14.011111111111111,-0.385
14.01388888888889,-0.385
14.016666666666667,-0.4
14.019444444444444,-0.43
14.022222222222222,-0.465
14.025,-0.485
14.027777777777779,-0.52
14.030555555555555,-0.555
14.033333333333333,-0.525
14.036111111111111,-0.435
14.03888888888889,-0.305
14.041666666666666,-0.155
14.044444444444444,0.01
14.047222222222222,0.26
14.05,0.535
14.052777777777777,0.76
14.055555555555555,0.89
14.058333333333334,0.905
14.061111111111112,0.705
14.063888888888888,0.36
14.066666666666666,-0.03
14.069444444444445,-0.32
14.072222222222223,-0.455
14.075,-0.475
14.077777777777778,-0.44
14.080555555555556,-0.395
14.083333333333334,-0.38
14.08611111111111,-0.38
14.088888888888889,-0.385
14.091666666666667,-0.395
14.094444444444445,-0.4
14.097222222222221,-0.405
14.1,-0.395
14.102777777777778,-0.41
14.105555555555556,-0.39
14.108333333333333,-0.395
14.11111111111111,-0.405
14.113888888888889,-0.405
14.116666666666667,-0.395
14.119444444444444,-0.385
14.122222222222222,-0.385
14.125,-0.405
14.127777777777778,-0.405
14.130555555555556,-0.4
14.133333333333333,-0.385
14.136111111111111,-0.38
14.13888888888889,-0.385
14.141666666666667,-0.405
14.144444444444444,-0.41
14.147222222222222,-0.4
14.15,-0.395
14.152777777777779,-0.385
14.155555555555555,-0.395
14.158333333333333,-0.41
14.161111111111111,-0.405
14.16388888888889,-0.405
14.166666666666666,-0.395
14.169444444444444,-0.39
14.172222222222222,-0.395
14.175,-0.395
14.177777777777777,-0.405
