time,voltage
0.0,-0.125
0.002777777777777778,-0.125
0.005555555555555556,-0.125
0.008333333333333333,-0.125
0.011111111111111112,-0.125
0.013888888888888888,-0.125
0.016666666666666666,-0.125
0.019444444444444445,-0.125
0.022222222222222223,-0.135
0.025,-0.125
0.027777777777777776,-0.125
0.030555555555555555,-0.12
0.03333333333333333,-0.095
0.03611111111111111,-0.085
0.03888888888888889,-0.105
0.041666666666666664,-0.17
0.044444444444444446,-0.225
0.04722222222222222,-0.255
0.05,-0.28
0.05277777777777778,-0.295
0.05555555555555555,-0.34
0.058333333333333334,-0.395
0.06111111111111111,-0.41
0.06388888888888888,-0.405
0.06666666666666667,-0.38
0.06944444444444445,-0.37
0.07222222222222222,-0.39
0.075,-0.41
0.07777777777777778,-0.425
0.08055555555555556,-0.42
0.08333333333333333,-0.405
0.08611111111111111,-0.37
0.08888888888888889,-0.375
0.09166666666666666,-0.39
0.09444444444444444,-0.41
0.09722222222222222,-0.405
0.1,-0.395
0.10277777777777777,-0.375
0.10555555555555556,-0.39
0.10833333333333334,-0.395
0.1111111111111111,-0.395
0.11388888888888889,-0.395
0.11666666666666667,-0.385
0.11944444444444445,-0.38
0.12222222222222222,-0.385
0.125,-0.4
0.12777777777777777,-0.405
0.13055555555555556,-0.405
0.13333333333333333,-0.405
0.1361111111111111,-0.415
0.1388888888888889,-0.435
0.14166666666666666,-0.425
0.14444444444444443,-0.425
0.14722222222222223,-0.39
0.15,-0.375
0.1527777777777778,-0.365
0.15555555555555556,-0.37
0.15833333333333333,-0.365
0.16111111111111112,-0.38
0.1638888888888889,-0.405
0.16666666666666666,-0.405
0.16944444444444445,-0.39
0.17222222222222222,-0.365
0.175,-0.33
0.17777777777777778,-0.32
0.18055555555555555,-0.295
0.18333333333333332,-0.27
0.18611111111111112,-0.28
0.18888888888888888,-0.34
0.19166666666666668,-0.44
0.19444444444444445,-0.51
0.19722222222222222,-0.52
0.2,-0.51
0.20277777777777778,-0.51
0.20555555555555555,-0.535
0.20833333333333334,-0.54
0.2111111111111111,-0.585
0.21388888888888888,-0.625
0.21666666666666667,-0.64
0.21944444444444444,-0.65
0.2222222222222222,-0.685
0.225,-0.73
0.22777777777777777,-0.78
0.23055555555555557,-0.835
0.23333333333333334,-0.885
0.2361111111111111,-0.915
0.2388888888888889,-0.94
0.24166666666666667,-0.975
0.24444444444444444,-0.98
0.24722222222222223,-0.94
0.25,-0.915
0.25277777777777777,-0.895
0.25555555555555554,-0.89
0.25833333333333336,-0.83
0.2611111111111111,-0.76
0.2638888888888889,-0.7
0.26666666666666666,-0.625
0.26944444444444443,-0.58
0.2722222222222222,-0.545
0.275,-0.505
0.2777777777777778,-0.485
0.28055555555555556,-0.445
0.2833333333333333,-0.395
0.2861111111111111,-0.37
0.28888888888888886,-0.37
0.2916666666666667,-0.36
0.29444444444444445,-0.36
0.2972222222222222,-0.355
0.3,-0.325
0.30277777777777776,-0.315
0.3055555555555556,-0.32
0.30833333333333335,-0.345
0.3111111111111111,-0.345
0.3138888888888889,-0.33
0.31666666666666665,-0.3
0.3194444444444444,-0.285
0.32222222222222224,-0.3
0.325,-0.29
0.3277777777777778,-0.295
0.33055555555555555,-0.3
0.3333333333333333,-0.29
0.33611111111111114,-0.28
0.3388888888888889,-0.285
0.3416666666666667,-0.32
0.34444444444444444,-0.32
0.3472222222222222,-0.31
0.35,-0.295
0.3527777777777778,-0.285
0.35555555555555557,-0.275
0.35833333333333334,-0.285
0.3611111111111111,-0.29
0.3638888888888889,-0.295
0.36666666666666664,-0.285
0.36944444444444446,-0.285
0.37222222222222223,-0.29
0.375,-0.285
0.37777777777777777,-0.275
0.38055555555555554,-0.28
0.38333333333333336,-0.27
0.3861111111111111,-0.26
0.3888888888888889,-0.27
0.39166666666666666,-0.27
0.39444444444444443,-0.275
0.3972222222222222,-0.26
0.4,-0.24
0.4027777777777778,-0.225
0.40555555555555556,-0.24
0.4083333333333333,-0.265
0.4111111111111111,-0.28
0.41388888888888886,-0.275
0.4166666666666667,-0.24
0.41944444444444445,-0.22
0.4222222222222222,-0.22
0.425,-0.225
0.42777777777777776,-0.24
0.4305555555555556,-0.22
0.43333333333333335,-0.2
0.4361111111111111,-0.19
0.4388888888888889,-0.185
0.44166666666666665,-0.22
0.4444444444444444,-0.245
0.44722222222222224,-0.225
0.45,-0.195
0.4527777777777778,-0.185
0.45555555555555555,-0.165
0.4583333333333333,-0.18
0.46111111111111114,-0.19
0.4638888888888889,-0.185
0.4666666666666667,-0.18
0.46944444444444444,-0.165
0.4722222222222222,-0.17
0.475,-0.155
0.4777777777777778,-0.16
0.48055555555555557,-0.175
0.48333333333333334,-0.175
0.4861111111111111,-0.145
0.4888888888888889,-0.17
0.49166666666666664,-0.16
0.49444444444444446,-0.165
0.49722222222222223,-0.165
0.5,-0.16
0.5027777777777778,-0.155
0.5055555555555555,-0.165
0.5083333333333333,-0.17
0.5111111111111111,-0.19
0.5138888888888888,-0.195
0.5166666666666667,-0.195
0.5194444444444445,-0.18
0.5222222222222223,-0.18
0.525,-0.2
0.5277777777777778,-0.2
0.5305555555555556,-0.205
0.5333333333333333,-0.2
0.5361111111111111,-0.19
0.5388888888888889,-0.19
0.5416666666666666,-0.2
0.5444444444444444,-0.23
0.5472222222222223,-0.225
0.55,-0.21
0.5527777777777778,-0.215
0.5555555555555556,-0.205
0.5583333333333333,-0.215
0.5611111111111111,-0.23
0.5638888888888889,-0.26
0.5666666666666667,-0.255
0.5694444444444444,-0.25
0.5722222222222222,-0.24
0.575,-0.245
0.5777777777777777,-0.25
0.5805555555555556,-0.265
0.5833333333333334,-0.27
0.5861111111111111,-0.255
0.5888888888888889,-0.265
0.5916666666666667,-0.265
0.5944444444444444,-0.27
0.5972222222222222,-0.28
0.6,-0.26
0.6027777777777777,-0.255
0.6055555555555555,-0.26
0.6083333333333333,-0.27
0.6111111111111112,-0.275
0.6138888888888889,-0.27
0.6166666666666667,-0.255
0.6194444444444445,-0.255
0.6222222222222222,-0.26
0.625,-0.27
0.6277777777777778,-0.275
0.6305555555555555,-0.27
0.6333333333333333,-0.265
0.6361111111111111,-0.255
0.6388888888888888,-0.265
0.6416666666666667,-0.28
0.6444444444444445,-0.285
0.6472222222222223,-0.285
0.65,-0.28
0.6527777777777778,-0.26
0.6555555555555556,-0.265
0.6583333333333333,-0.27
0.6611111111111111,-0.28
0.6638888888888889,-0.285
0.6666666666666666,-0.285
0.6694444444444444,-0.26
0.6722222222222223,-0.255
0.675,-0.27
0.6777777777777778,-0.275
0.6805555555555556,-0.285
0.6833333333333333,-0.27
0.6861111111111111,-0.275
0.6888888888888889,-0.29
0.6916666666666667,-0.305
0.6944444444444444,-0.32
0.6972222222222222,-0.305
0.7,-0.29
0.7027777777777777,-0.275
0.7055555555555556,-0.285
0.7083333333333334,-0.31
0.7111111111111111,-0.325
0.7138888888888889,-0.315
0.7166666666666667,-0.315
0.7194444444444444,-0.3
0.7222222222222222,-0.31
0.725,-0.335
0.7277777777777777,-0.34
0.7305555555555555,-0.365
0.7333333333333333,-0.355
0.7361111111111112,-0.335
0.7388888888888889,-0.34
0.7416666666666667,-0.34
0.7444444444444445,-0.375
0.7472222222222222,-0.365
0.75,-0.35
0.7527777777777778,-0.34
0.7555555555555555,-0.36
0.7583333333333333,-0.36
0.7611111111111111,-0.375
0.7638888888888888,-0.37
0.7666666666666667,-0.355
0.7694444444444445,-0.35
0.7722222222222223,-0.35
0.775,-0.36
0.7777777777777778,-0.37
0.7805555555555556,-0.375
0.7833333333333333,-0.375
0.7861111111111111,-0.35
0.7888888888888889,-0.36
0.7916666666666666,-0.36
0.7944444444444444,-0.38
0.7972222222222223,-0.375
0.8,-0.355
0.8027777777777778,-0.345
0.8055555555555556,-0.34
0.8083333333333333,-0.345
0.8111111111111111,-0.355
0.8138888888888889,-0.36
0.8166666666666667,-0.345
0.8194444444444444,-0.335
0.8222222222222222,-0.345
0.825,-0.34
0.8277777777777777,-0.34
0.8305555555555556,-0.34
0.8333333333333334,-0.33
0.8361111111111111,-0.33
0.8388888888888889,-0.325
0.8416666666666667,-0.33
0.8444444444444444,-0.335
0.8472222222222222,-0.33
0.85,-0.31
0.8527777777777777,-0.295
0.8555555555555555,-0.3
0.8583333333333333,-0.32
0.8611111111111112,-0.33
0.8638888888888889,-0.345
0.8666666666666667,-0.325
0.8694444444444445,-0.315
0.8722222222222222,-0.31
0.875,-0.315
0.8777777777777778,-0.345
0.8805555555555555,-0.33
0.8833333333333333,-0.31
0.8861111111111111,-0.29
0.8888888888888888,-0.315
0.8916666666666667,-0.335
0.8944444444444445,-0.335
0.8972222222222223,-0.345
0.9,-0.325
0.9027777777777778,-0.305
0.9055555555555556,-0.3
0.9083333333333333,-0.305
0.9111111111111111,-0.305
0.9138888888888889,-0.315
0.9166666666666666,-0.3
0.9194444444444444,-0.29
0.9222222222222223,-0.3
0.925,-0.32
0.9277777777777778,-0.325
0.9305555555555556,-0.32
0.9333333333333333,-0.305
0.9361111111111111,-0.305
0.9388888888888889,-0.31
0.9416666666666667,-0.31
0.9444444444444444,-0.31
0.9472222222222222,-0.305
0.95,-0.3
0.9527777777777777,-0.28
0.9555555555555556,-0.265
0.9583333333333334,-0.275
0.9611111111111111,-0.28
0.9638888888888889,-0.265
0.9666666666666667,-0.25
0.9694444444444444,-0.235
0.9722222222222222,-0.225
0.975,-0.225
0.9777777777777777,-0.23
0.9805555555555555,-0.2
0.9833333333333333,-0.18
0.9861111111111112,-0.155
0.9888888888888889,-0.145
0.9916666666666667,-0.15
0.9944444444444445,-0.15
0.9972222222222222,-0.12
1.0,-0.105
1.0027777777777778,-0.095
1.0055555555555555,-0.085
1.0083333333333333,-0.09
1.011111111111111,-0.095
1.0138888888888888,-0.095
1.0166666666666666,-0.075
1.0194444444444444,-0.055
1.0222222222222221,-0.05
1.025,-0.065
1.0277777777777777,-0.11
1.0305555555555554,-0.135
1.0333333333333334,-0.165
1.0361111111111112,-0.185
1.038888888888889,-0.22
1.0416666666666667,-0.275
1.0444444444444445,-0.32
1.0472222222222223,-0.35
1.05,-0.37
1.0527777777777778,-0.35
1.0555555555555556,-0.35
1.0583333333333333,-0.355
1.0611111111111111,-0.36
1.0638888888888889,-0.365
1.0666666666666667,-0.36
1.0694444444444444,-0.345
1.0722222222222222,-0.34
1.075,-0.355
1.0777777777777777,-0.37
1.0805555555555555,-0.38
1.0833333333333333,-0.39
1.086111111111111,-0.36
1.0888888888888888,-0.34
1.0916666666666666,-0.32
1.0944444444444446,-0.34
1.0972222222222223,-0.36
1.1,-0.355
1.1027777777777779,-0.345
1.1055555555555556,-0.34
1.1083333333333334,-0.355
1.1111111111111112,-0.35
1.113888888888889,-0.35
1.1166666666666667,-0.345
1.1194444444444445,-0.35
1.1222222222222222,-0.355
1.125,-0.37
1.1277777777777778,-0.37
1.1305555555555555,-0.36
1.1333333333333333,-0.345
1.136111111111111,-0.33
1.1388888888888888,-0.33
1.1416666666666666,-0.35
1.1444444444444444,-0.36
1.1472222222222221,-0.37
1.15,-0.375
1.1527777777777777,-0.385
1.1555555555555554,-0.39
1.1583333333333334,-0.375
1.1611111111111112,-0.345
1.163888888888889,-0.315
1.1666666666666667,-0.275
1.1694444444444445,-0.25
1.1722222222222223,-0.265
1.175,-0.34
1.1777777777777778,-0.425
1.1805555555555556,-0.495
1.1833333333333333,-0.51
1.1861111111111111,-0.495
1.1888888888888889,-0.485
1.1916666666666667,-0.495
1.1944444444444444,-0.53
1.1972222222222222,-0.575
1.2,-0.6
1.2027777777777777,-0.63
1.2055555555555555,-0.655
1.2083333333333333,-0.68
1.211111111111111,-0.725
1.2138888888888888,-0.78
1.2166666666666666,-0.845
1.2194444444444446,-0.9
1.2222222222222223,-0.915
1.225,-0.935
1.2277777777777779,-0.935
1.2305555555555556,-0.915
1.2333333333333334,-0.88
1.2361111111111112,-0.855
1.238888888888889,-0.82
1.2416666666666667,-0.755
1.2444444444444445,-0.685
1.2472222222222222,-0.61
1.25,-0.55
1.2527777777777778,-0.51
1.2555555555555555,-0.48
1.2583333333333333,-0.44
1.261111111111111,-0.39
1.2638888888888888,-0.355
1.2666666666666666,-0.315
1.2694444444444444,-0.3
1.2722222222222221,-0.3
1.275,-0.3
1.2777777777777777,-0.3
1.2805555555555554,-0.29
1.2833333333333334,-0.275
1.2861111111111112,-0.265
1.288888888888889,-0.275
1.2916666666666667,-0.29
1.2944444444444445,-0.3
1.2972222222222223,-0.275
1.3,-0.255
1.3027777777777778,-0.245
1.3055555555555556,-0.26
1.3083333333333333,-0.28
1.3111111111111111,-0.275
1.3138888888888889,-0.26
1.3166666666666667,-0.245
1.3194444444444444,-0.24
1.3222222222222222,-0.25
1.325,-0.245
1.3277777777777777,-0.26
1.3305555555555555,-0.265
1.3333333333333333,-0.27
1.336111111111111,-0.24
1.3388888888888888,-0.23
1.3416666666666666,-0.22
1.3444444444444446,-0.225
1.3472222222222223,-0.22
1.35,-0.225
1.3527777777777779,-0.225
1.3555555555555556,-0.225
1.3583333333333334,-0.24
1.3611111111111112,-0.24
1.363888888888889,-0.24
1.3666666666666667,-0.23
1.3694444444444445,-0.2
1.3722222222222222,-0.195
1.375,-0.2
1.3777777777777778,-0.215
1.3805555555555555,-0.23
1.3833333333333333,-0.215
1.386111111111111,-0.18
1.3888888888888888,-0.18
1.3916666666666666,-0.185
1.3944444444444444,-0.195
1.3972222222222221,-0.2
1.4,-0.195
1.4027777777777777,-0.175
1.4055555555555554,-0.155
1.4083333333333334,-0.155
1.4111111111111112,-0.175
1.413888888888889,-0.17
1.4166666666666667,-0.145
1.4194444444444445,-0.14
1.4222222222222223,-0.15
1.425,-0.16
1.4277777777777778,-0.155
1.4305555555555556,-0.14
1.4333333333333333,-0.135
1.4361111111111111,-0.115
1.4388888888888889,-0.12
1.4416666666666667,-0.11
1.4444444444444444,-0.115
1.4472222222222222,-0.11
1.45,-0.11
1.4527777777777777,-0.095
1.4555555555555555,-0.11
1.4583333333333333,-0.115
1.461111111111111,-0.13
1.4638888888888888,-0.12
1.4666666666666666,-0.105
1.4694444444444446,-0.1
1.4722222222222223,-0.11
1.475,-0.115
1.4777777777777779,-0.12
1.4805555555555556,-0.105
1.4833333333333334,-0.085
1.4861111111111112,-0.09
1.488888888888889,-0.1
1.4916666666666667,-0.115
1.4944444444444445,-0.13
1.4972222222222222,-0.125
1.5,-0.1
1.5027777777777778,-0.1
1.5055555555555555,-0.115
1.5083333333333333,-0.13
1.511111111111111,-0.145
1.5138888888888888,-0.155
1.5166666666666666,-0.16
1.5194444444444444,-0.14
1.5222222222222221,-0.14
1.525,-0.145
1.5277777777777777,-0.165
1.5305555555555554,-0.19
1.5333333333333334,-0.195
1.5361111111111112,-0.17
1.538888888888889,-0.165
1.5416666666666667,-0.18
1.5444444444444445,-0.19
1.5472222222222223,-0.205
1.55,-0.2
1.5527777777777778,-0.17
1.5555555555555556,-0.19
1.5583333333333333,-0.205
1.5611111111111111,-0.21
1.5638888888888889,-0.215
1.5666666666666667,-0.215
1.5694444444444444,-0.205
1.5722222222222222,-0.205
1.575,-0.215
1.5777777777777777,-0.225
1.5805555555555555,-0.21
1.5833333333333333,-0.2
1.586111111111111,-0.195
1.5888888888888888,-0.21
1.5916666666666666,-0.225
1.5944444444444446,-0.24
1.5972222222222223,-0.24
1.6,-0.24
1.6027777777777779,-0.245
1.6055555555555556,-0.245
1.6083333333333334,-0.23
1.6111111111111112,-0.225
1.613888888888889,-0.22
1.6166666666666667,-0.225
1.6194444444444445,-0.235
1.6222222222222222,-0.235
1.625,-0.26
1.6277777777777778,-0.265
1.6305555555555555,-0.25
1.6333333333333333,-0.235
1.636111111111111,-0.225
1.6388888888888888,-0.235
1.6416666666666666,-0.25
1.6444444444444444,-0.285
1.6472222222222221,-0.28
1.65,-0.26
1.6527777777777777,-0.25
1.6555555555555554,-0.26
1.6583333333333334,-0.27
1.6611111111111112,-0.275
1.663888888888889,-0.285
1.6666666666666667,-0.265
1.6694444444444445,-0.26
1.6722222222222223,-0.27
1.675,-0.3
1.6777777777777778,-0.305
1.6805555555555556,-0.3
1.6833333333333333,-0.31
1.6861111111111111,-0.29
1.6888888888888889,-0.27
1.6916666666666667,-0.3
1.6944444444444444,-0.32
1.6972222222222222,-0.31
1.7,-0.305
1.7027777777777777,-0.285
1.7055555555555555,-0.285
1.7083333333333333,-0.295
1.711111111111111,-0.315
1.7138888888888888,-0.32
1.7166666666666666,-0.32
1.7194444444444446,-0.315
1.7222222222222223,-0.32
1.725,-0.315
1.7277777777777779,-0.34
1.7305555555555556,-0.335
1.7333333333333334,-0.315
1.7361111111111112,-0.31
1.738888888888889,-0.32
1.7416666666666667,-0.335
1.7444444444444445,-0.34
1.7472222222222222,-0.345
1.75,-0.33
1.7527777777777778,-0.315
1.7555555555555555,-0.32
1.7583333333333333,-0.325
1.761111111111111,-0.34
1.7638888888888888,-0.345
1.7666666666666666,-0.34
1.7694444444444444,-0.33
1.7722222222222221,-0.33
1.775,-0.31
1.7777777777777777,-0.315
1.7805555555555554,-0.305
1.7833333333333334,-0.31
1.7861111111111112,-0.31
1.788888888888889,-0.305
1.7916666666666667,-0.315
1.7944444444444445,-0.32
1.7972222222222223,-0.305
1.8,-0.3
1.8027777777777778,-0.3
1.8055555555555556,-0.305
1.8083333333333333,-0.305
1.8111111111111111,-0.32
1.8138888888888889,-0.32
1.8166666666666667,-0.31
1.8194444444444444,-0.31
1.8222222222222222,-0.305
1.825,-0.295
1.8277777777777777,-0.295
1.8305555555555555,-0.3
1.8333333333333333,-0.295
1.836111111111111,-0.3
1.8388888888888888,-0.295
1.8416666666666666,-0.305
1.8444444444444446,-0.305
1.8472222222222223,-0.285
1.85,-0.275
1.8527777777777779,-0.29
1.8555555555555556,-0.285
1.8583333333333334,-0.285
1.8611111111111112,-0.315
1.863888888888889,-0.3
1.8666666666666667,-0.29
1.8694444444444445,-0.285
1.8722222222222222,-0.295
1.875,-0.3
1.8777777777777778,-0.29
1.8805555555555555,-0.285
1.8833333333333333,-0.265
1.886111111111111,-0.27
1.8888888888888888,-0.28
1.8916666666666666,-0.29
1.8944444444444444,-0.295
1.8972222222222221,-0.3
1.9,-0.285
1.9027777777777777,-0.275
1.9055555555555554,-0.27
1.9083333333333334,-0.27
1.9111111111111112,-0.285
1.913888888888889,-0.29
1.9166666666666667,-0.28
1.9194444444444445,-0.275
1.9222222222222223,-0.275
1.925,-0.275
1.9277777777777778,-0.275
1.9305555555555556,-0.26
1.9333333333333333,-0.225
1.9361111111111111,-0.205
1.9388888888888889,-0.2
1.9416666666666667,-0.205
1.9444444444444444,-0.215
1.9472222222222222,-0.205
1.95,-0.2
1.9527777777777777,-0.175
1.9555555555555555,-0.15
1.9583333333333333,-0.12
1.961111111111111,-0.115
1.9638888888888888,-0.09
1.9666666666666666,-0.085
1.9694444444444446,-0.065
1.9722222222222223,-0.065
1.975,-0.085
1.9777777777777779,-0.08
1.9805555555555556,-0.04
1.9833333333333334,0.005
1.9861111111111112,0.01
1.988888888888889,0.005
1.9916666666666667,-0.01
1.9944444444444445,-0.04
1.9972222222222222,-0.08
2.0,-0.12
2.0027777777777778,-0.135
2.0055555555555555,-0.175
2.0083333333333333,-0.215
2.011111111111111,-0.265
2.013888888888889,-0.305
2.0166666666666666,-0.315
2.0194444444444444,-0.315
2.022222222222222,-0.315
2.025,-0.305
2.0277777777777777,-0.32
2.0305555555555554,-0.315
2.033333333333333,-0.305
2.036111111111111,-0.29
2.0388888888888888,-0.305
2.0416666666666665,-0.315
2.0444444444444443,-0.325
2.047222222222222,-0.315
2.05,-0.315
2.0527777777777776,-0.305
2.0555555555555554,-0.31
2.058333333333333,-0.31
2.061111111111111,-0.315
2.063888888888889,-0.32
2.066666666666667,-0.315
2.0694444444444446,-0.305
2.0722222222222224,-0.285
2.075,-0.285
2.077777777777778,-0.31
2.0805555555555557,-0.32
2.0833333333333335,-0.32
2.0861111111111112,-0.31
2.088888888888889,-0.345
2.091666666666667,-0.34
2.0944444444444446,-0.35
2.0972222222222223,-0.345
2.1,-0.345
2.102777777777778,-0.32
2.1055555555555556,-0.315
2.1083333333333334,-0.315
2.111111111111111,-0.345
2.113888888888889,-0.34
2.1166666666666667,-0.32
2.1194444444444445,-0.315
2.1222222222222222,-0.325
2.125,-0.35
2.1277777777777778,-0.34
2.1305555555555555,-0.32
2.1333333333333333,-0.285
2.136111111111111,-0.27
2.138888888888889,-0.265
2.1416666666666666,-0.28
2.1444444444444444,-0.35
2.147222222222222,-0.425
2.15,-0.465
2.1527777777777777,-0.47
2.1555555555555554,-0.49
2.158333333333333,-0.51
2.161111111111111,-0.53
2.1638888888888888,-0.565
2.1666666666666665,-0.605
2.1694444444444443,-0.625
2.172222222222222,-0.655
2.175,-0.68
2.1777777777777776,-0.705
2.1805555555555554,-0.76
2.183333333333333,-0.82
2.186111111111111,-0.86
2.188888888888889,-0.9
2.191666666666667,-0.915
2.1944444444444446,-0.925
2.1972222222222224,-0.895
2.2,-0.84
2.202777777777778,-0.815
2.2055555555555557,-0.79
2.2083333333333335,-0.745
2.2111111111111112,-0.67
2.213888888888889,-0.58
2.216666666666667,-0.515
2.2194444444444446,-0.475
2.2222222222222223,-0.46
2.225,-0.425
2.227777777777778,-0.395
2.2305555555555556,-0.345
2.2333333333333334,-0.315
2.236111111111111,-0.295
2.238888888888889,-0.29
2.2416666666666667,-0.28
2.2444444444444445,-0.28
2.2472222222222222,-0.285
2.25,-0.27
2.2527777777777778,-0.26
2.2555555555555555,-0.255
2.2583333333333333,-0.265
2.261111111111111,-0.265
2.263888888888889,-0.265
2.2666666666666666,-0.265
2.2694444444444444,-0.265
2.272222222222222,-0.26
2.275,-0.27
2.2777777777777777,-0.285
2.2805555555555554,-0.26
2.283333333333333,-0.215
2.286111111111111,-0.19
2.2888888888888888,-0.21
2.2916666666666665,-0.23
2.2944444444444443,-0.255
2.297222222222222,-0.255
2.3,-0.23
2.3027777777777776,-0.235
2.3055555555555554,-0.235
2.308333333333333,-0.245
2.311111111111111,-0.23
2.313888888888889,-0.215
2.316666666666667,-0.22
2.3194444444444446,-0.22
2.3222222222222224,-0.22
2.325,-0.225
2.327777777777778,-0.23
2.3305555555555557,-0.225
2.3333333333333335,-0.205
2.3361111111111112,-0.19
2.338888888888889,-0.2
2.341666666666667,-0.215
2.3444444444444446,-0.23
2.3472222222222223,-0.22
2.35,-0.185
2.352777777777778,-0.17
2.3555555555555556,-0.16
2.3583333333333334,-0.18
2.361111111111111,-0.2
2.363888888888889,-0.205
2.3666666666666667,-0.175
2.3694444444444445,-0.135
2.3722222222222222,-0.11
2.375,-0.145
2.3777777777777778,-0.175
2.3805555555555555,-0.18
2.3833333333333333,-0.155
2.386111111111111,-0.135
2.388888888888889,-0.125
2.3916666666666666,-0.145
2.3944444444444444,-0.15
2.397222222222222,-0.14
2.4,-0.145
2.4027777777777777,-0.12
2.4055555555555554,-0.095
2.408333333333333,-0.1
2.411111111111111,-0.12
2.4138888888888888,-0.105
2.4166666666666665,-0.11
2.4194444444444443,-0.11
2.422222222222222,-0.115
2.425,-0.115
2.4277777777777776,-0.125
2.4305555555555554,-0.105
2.433333333333333,-0.095
2.436111111111111,-0.09
2.438888888888889,-0.085
2.441666666666667,-0.1
2.4444444444444446,-0.13
2.4472222222222224,-0.15
2.45,-0.14
2.452777777777778,-0.11
2.4555555555555557,-0.07
2.4583333333333335,-0.065
2.4611111111111112,-0.105
2.463888888888889,-0.135
2.466666666666667,-0.14
2.4694444444444446,-0.11
2.4722222222222223,-0.09
2.475,-0.105
2.477777777777778,-0.125
2.4805555555555556,-0.13
2.4833333333333334,-0.145
2.486111111111111,-0.13
2.488888888888889,-0.15
2.4916666666666667,-0.18
2.4944444444444445,-0.185
2.4972222222222222,-0.19
2.5,-0.185
2.5027777777777778,-0.17
2.5055555555555555,-0.175
2.5083333333333333,-0.2
2.511111111111111,-0.21
2.513888888888889,-0.215
2.5166666666666666,-0.21
2.5194444444444444,-0.21
2.522222222222222,-0.225
2.525,-0.235
2.5277777777777777,-0.245
2.5305555555555554,-0.25
2.533333333333333,-0.23
2.536111111111111,-0.22
2.5388888888888888,-0.225
2.5416666666666665,-0.235
2.5444444444444443,-0.265
2.547222222222222,-0.255
2.55,-0.25
2.5527777777777776,-0.24
2.5555555555555554,-0.24
2.558333333333333,-0.255
2.561111111111111,-0.27
2.563888888888889,-0.275
2.566666666666667,-0.265
2.5694444444444446,-0.25
2.5722222222222224,-0.265
2.575,-0.27
2.577777777777778,-0.3
2.5805555555555557,-0.275
2.5833333333333335,-0.265
2.5861111111111112,-0.265
2.588888888888889,-0.26
2.591666666666667,-0.27
2.5944444444444446,-0.295
2.5972222222222223,-0.295
2.6,-0.285
2.602777777777778,-0.275
2.6055555555555556,-0.275
2.6083333333333334,-0.295
2.611111111111111,-0.31
2.613888888888889,-0.325
2.6166666666666667,-0.31
2.6194444444444445,-0.29
2.6222222222222222,-0.29
2.625,-0.295
2.6277777777777778,-0.305
2.6305555555555555,-0.315
2.6333333333333333,-0.31
2.636111111111111,-0.305
2.638888888888889,-0.29
2.6416666666666666,-0.31
2.6444444444444444,-0.335
2.647222222222222,-0.345
2.65,-0.345
2.6527777777777777,-0.335
2.6555555555555554,-0.33
2.658333333333333,-0.33
2.661111111111111,-0.34
2.6638888888888888,-0.35
2.6666666666666665,-0.345
2.6694444444444443,-0.33
2.672222222222222,-0.33
2.675,-0.345
2.6777777777777776,-0.375
2.6805555555555554,-0.36
2.683333333333333,-0.35
2.686111111111111,-0.34
2.688888888888889,-0.345
2.691666666666667,-0.37
2.6944444444444446,-0.37
2.6972222222222224,-0.36
2.7,-0.365
2.702777777777778,-0.345
2.7055555555555557,-0.355
2.7083333333333335,-0.37
2.7111111111111112,-0.37
2.713888888888889,-0.375
2.716666666666667,-0.355
2.7194444444444446,-0.345
2.7222222222222223,-0.34
2.725,-0.35
2.727777777777778,-0.365
2.7305555555555556,-0.37
2.7333333333333334,-0.365
2.736111111111111,-0.355
2.738888888888889,-0.365
2.7416666666666667,-0.375
2.7444444444444445,-0.37
2.7472222222222222,-0.365
2.75,-0.34
2.7527777777777778,-0.315
2.7555555555555555,-0.335
2.7583333333333333,-0.35
2.761111111111111,-0.365
2.763888888888889,-0.35
2.7666666666666666,-0.35
2.7694444444444444,-0.335
2.772222222222222,-0.34
2.775,-0.355
2.7777777777777777,-0.35
2.7805555555555554,-0.335
2.783333333333333,-0.34
2.786111111111111,-0.33
2.7888888888888888,-0.35
2.7916666666666665,-0.355
2.7944444444444443,-0.35
2.797222222222222,-0.325
2.8,-0.315
2.8027777777777776,-0.325
2.8055555555555554,-0.34
2.808333333333333,-0.365
2.811111111111111,-0.36
2.813888888888889,-0.34
2.816666666666667,-0.325
2.8194444444444446,-0.32
2.8222222222222224,-0.33
2.825,-0.34
2.827777777777778,-0.355
2.8305555555555557,-0.33
2.8333333333333335,-0.32
2.8361111111111112,-0.325
2.838888888888889,-0.335
2.841666666666667,-0.325
2.8444444444444446,-0.33
2.8472222222222223,-0.325
2.85,-0.32
2.852777777777778,-0.33
2.8555555555555556,-0.34
2.8583333333333334,-0.345
2.861111111111111,-0.325
2.863888888888889,-0.31
2.8666666666666667,-0.31
2.8694444444444445,-0.31
2.8722222222222222,-0.31
2.875,-0.325
2.8777777777777778,-0.32
2.8805555555555555,-0.305
2.8833333333333333,-0.3
2.886111111111111,-0.305
2.888888888888889,-0.335
2.8916666666666666,-0.335
2.8944444444444444,-0.335
2.897222222222222,-0.305
2.9,-0.29
2.9027777777777777,-0.3
2.9055555555555554,-0.315
2.908333333333333,-0.335
2.911111111111111,-0.32
2.9138888888888888,-0.305
2.9166666666666665,-0.29
2.9194444444444443,-0.295
2.922222222222222,-0.3
2.925,-0.32
2.9277777777777776,-0.305
2.9305555555555554,-0.285
2.933333333333333,-0.28
2.936111111111111,-0.275
2.938888888888889,-0.265
2.941666666666667,-0.25
2.9444444444444446,-0.23
2.9472222222222224,-0.22
2.95,-0.21
2.952777777777778,-0.195
2.9555555555555557,-0.19
2.9583333333333335,-0.18
2.9611111111111112,-0.165
2.963888888888889,-0.135
2.966666666666667,-0.11
2.9694444444444446,-0.09
2.9722222222222223,-0.095
2.975,-0.1
2.977777777777778,-0.11
2.9805555555555556,-0.115
2.9833333333333334,-0.09
2.986111111111111,-0.075
2.988888888888889,-0.075
2.9916666666666667,-0.07
2.9944444444444445,-0.055
2.9972222222222222,-0.04
3.0,-0.065
3.0027777777777778,-0.115
3.0055555555555555,-0.165
3.0083333333333333,-0.225
3.011111111111111,-0.245
3.013888888888889,-0.285
3.0166666666666666,-0.305
3.0194444444444444,-0.35
3.022222222222222,-0.365
3.025,-0.37
3.0277777777777777,-0.355
3.0305555555555554,-0.35
3.033333333333333,-0.345
3.036111111111111,-0.345
3.0388888888888888,-0.36
3.0416666666666665,-0.36
3.0444444444444443,-0.35
3.047222222222222,-0.34
3.05,-0.335
3.0527777777777776,-0.355
3.0555555555555554,-0.365
3.058333333333333,-0.38
3.061111111111111,-0.37
3.063888888888889,-0.355
3.066666666666667,-0.33
3.0694444444444446,-0.34
3.0722222222222224,-0.35
3.075,-0.355
3.077777777777778,-0.355
3.0805555555555557,-0.35
3.0833333333333335,-0.34
3.0861111111111112,-0.345
3.088888888888889,-0.355
3.091666666666667,-0.36
3.0944444444444446,-0.35
3.0972222222222223,-0.35
3.1,-0.33
3.102777777777778,-0.335
3.1055555555555556,-0.355
3.1083333333333334,-0.365
3.111111111111111,-0.355
3.113888888888889,-0.355
3.1166666666666667,-0.35
3.1194444444444445,-0.345
3.1222222222222222,-0.34
3.125,-0.34
3.1277777777777778,-0.35
3.1305555555555555,-0.36
3.1333333333333333,-0.37
3.136111111111111,-0.38
3.138888888888889,-0.345
3.1416666666666666,-0.325
3.1444444444444444,-0.28
3.147222222222222,-0.24
3.15,-0.22
3.1527777777777777,-0.245
3.1555555555555554,-0.32
3.158333333333333,-0.44
3.161111111111111,-0.515
3.1638888888888888,-0.515
3.1666666666666665,-0.51
3.1694444444444443,-0.5
3.172222222222222,-0.505
3.175,-0.555
3.1777777777777776,-0.6
3.1805555555555554,-0.635
3.183333333333333,-0.65
3.186111111111111,-0.675
3.188888888888889,-0.705
3.191666666666667,-0.745
3.1944444444444446,-0.785
3.1972222222222224,-0.845
3.2,-0.87
3.202777777777778,-0.9
3.2055555555555557,-0.935
3.2083333333333335,-0.945
3.2111111111111112,-0.91
3.213888888888889,-0.87
3.216666666666667,-0.845
3.2194444444444446,-0.82
3.2222222222222223,-0.765
3.225,-0.69
3.227777777777778,-0.61
3.2305555555555556,-0.55
3.2333333333333334,-0.515
3.236111111111111,-0.475
3.238888888888889,-0.44
3.2416666666666667,-0.385
3.2444444444444445,-0.37
3.2472222222222222,-0.33
3.25,-0.305
3.2527777777777778,-0.28
3.2555555555555555,-0.28
3.2583333333333333,-0.295
3.261111111111111,-0.305
3.263888888888889,-0.29
3.2666666666666666,-0.28
3.2694444444444444,-0.29
3.272222222222222,-0.29
3.275,-0.29
3.2777777777777777,-0.285
3.2805555555555554,-0.275
3.283333333333333,-0.27
3.286111111111111,-0.285
3.2888888888888888,-0.28
3.2916666666666665,-0.3
3.2944444444444443,-0.3
3.297222222222222,-0.27
3.3,-0.255
3.3027777777777776,-0.26
3.3055555555555554,-0.26
3.308333333333333,-0.28
3.311111111111111,-0.27
3.313888888888889,-0.27
3.316666666666667,-0.255
3.3194444444444446,-0.27
3.3222222222222224,-0.26
3.325,-0.28
3.327777777777778,-0.275
3.3305555555555557,-0.27
3.3333333333333335,-0.25
3.3361111111111112,-0.24
3.338888888888889,-0.235
3.341666666666667,-0.265
3.3444444444444446,-0.265
3.3472222222222223,-0.245
3.35,-0.245
3.352777777777778,-0.24
3.3555555555555556,-0.24
3.3583333333333334,-0.245
3.361111111111111,-0.235
3.363888888888889,-0.205
3.3666666666666667,-0.185
3.3694444444444445,-0.2
3.3722222222222222,-0.205
3.375,-0.22
3.3777777777777778,-0.215
3.3805555555555555,-0.205
3.3833333333333333,-0.2
3.386111111111111,-0.2
3.388888888888889,-0.195
3.3916666666666666,-0.195
3.3944444444444444,-0.185
3.397222222222222,-0.18
3.4,-0.18
3.4027777777777777,-0.17
3.4055555555555554,-0.17
3.408333333333333,-0.19
3.411111111111111,-0.195
3.4138888888888888,-0.16
3.4166666666666665,-0.15
3.4194444444444443,-0.135
3.422222222222222,-0.16
3.425,-0.17
3.4277777777777776,-0.16
3.4305555555555554,-0.15
3.433333333333333,-0.13
3.436111111111111,-0.13
3.438888888888889,-0.15
3.441666666666667,-0.155
3.4444444444444446,-0.16
3.4472222222222224,-0.15
3.45,-0.16
3.452777777777778,-0.16
3.4555555555555557,-0.15
3.4583333333333335,-0.145
3.4611111111111112,-0.15
3.463888888888889,-0.15
3.466666666666667,-0.14
3.4694444444444446,-0.155
3.4722222222222223,-0.15
3.475,-0.175
3.477777777777778,-0.18
3.4805555555555556,-0.17
3.4833333333333334,-0.175
3.486111111111111,-0.18
3.488888888888889,-0.2
3.4916666666666667,-0.215
3.4944444444444445,-0.215
3.4972222222222222,-0.21
3.5,-0.2
3.5027777777777778,-0.21
3.5055555555555555,-0.215
3.5083333333333333,-0.235
3.511111111111111,-0.245
3.513888888888889,-0.24
3.5166666666666666,-0.25
3.5194444444444444,-0.255
3.522222222222222,-0.25
3.525,-0.265
3.5277777777777777,-0.26
3.5305555555555554,-0.25
3.533333333333333,-0.255
3.536111111111111,-0.24
3.5388888888888888,-0.24
3.5416666666666665,-0.255
3.5444444444444443,-0.265
3.547222222222222,-0.27
3.55,-0.255
3.5527777777777776,-0.255
3.5555555555555554,-0.25
3.558333333333333,-0.25
3.561111111111111,-0.255
3.563888888888889,-0.26
3.566666666666667,-0.245
3.5694444444444446,-0.25
3.5722222222222224,-0.25
3.575,-0.275
3.577777777777778,-0.265
3.5805555555555557,-0.265
3.5833333333333335,-0.25
3.5861111111111112,-0.255
3.588888888888889,-0.27
3.591666666666667,-0.275
3.5944444444444446,-0.27
3.5972222222222223,-0.28
3.6,-0.265
3.602777777777778,-0.265
3.6055555555555556,-0.28
3.6083333333333334,-0.285
3.611111111111111,-0.29
3.613888888888889,-0.27
3.6166666666666667,-0.26
3.6194444444444445,-0.275
3.6222222222222222,-0.3
3.625,-0.295
3.6277777777777778,-0.275
3.6305555555555555,-0.275
3.6333333333333333,-0.275
3.636111111111111,-0.275
3.638888888888889,-0.29
3.6416666666666666,-0.315
3.6444444444444444,-0.305
3.647222222222222,-0.315
3.65,-0.29
3.6527777777777777,-0.285
3.6555555555555554,-0.305
3.658333333333333,-0.31
3.661111111111111,-0.32
3.6638888888888888,-0.305
3.6666666666666665,-0.315
3.6694444444444443,-0.31
3.672222222222222,-0.345
3.675,-0.355
3.6777777777777776,-0.35
3.6805555555555554,-0.335
3.683333333333333,-0.315
3.686111111111111,-0.315
3.688888888888889,-0.35
3.691666666666667,-0.35
3.6944444444444446,-0.335
3.6972222222222224,-0.335
3.7,-0.325
3.702777777777778,-0.325
3.7055555555555557,-0.34
3.7083333333333335,-0.35
3.7111111111111112,-0.355
3.713888888888889,-0.35
3.716666666666667,-0.335
3.7194444444444446,-0.335
3.7222222222222223,-0.34
3.725,-0.375
3.727777777777778,-0.37
3.7305555555555556,-0.345
3.7333333333333334,-0.31
3.736111111111111,-0.305
3.738888888888889,-0.32
3.7416666666666667,-0.335
3.7444444444444445,-0.33
3.7472222222222222,-0.315
3.75,-0.3
3.7527777777777778,-0.29
3.7555555555555555,-0.305
3.7583333333333333,-0.32
3.761111111111111,-0.31
3.763888888888889,-0.32
3.7666666666666666,-0.31
3.7694444444444444,-0.315
3.772222222222222,-0.33
3.775,-0.32
3.7777777777777777,-0.32
3.7805555555555554,-0.31
3.783333333333333,-0.29
3.786111111111111,-0.305
3.7888888888888888,-0.3
3.7916666666666665,-0.315
3.7944444444444443,-0.315
3.797222222222222,-0.32
3.8,-0.31
3.8027777777777776,-0.305
3.8055555555555554,-0.305
3.808333333333333,-0.31
3.811111111111111,-0.295
3.813888888888889,-0.28
3.816666666666667,-0.28
3.8194444444444446,-0.29
3.8222222222222224,-0.315
3.825,-0.34
3.827777777777778,-0.34
3.8305555555555557,-0.315
3.8333333333333335,-0.27
3.8361111111111112,-0.26
3.838888888888889,-0.27
3.841666666666667,-0.29
3.8444444444444446,-0.285
3.8472222222222223,-0.29
3.85,-0.28
3.852777777777778,-0.28
3.8555555555555556,-0.3
3.8583333333333334,-0.3
3.861111111111111,-0.31
3.863888888888889,-0.29
3.8666666666666667,-0.28
3.8694444444444445,-0.285
3.8722222222222222,-0.29
3.875,-0.305
3.8777777777777778,-0.31
3.8805555555555555,-0.28
3.8833333333333333,-0.26
3.886111111111111,-0.255
3.888888888888889,-0.24
3.8916666666666666,-0.245
3.8944444444444444,-0.235
3.897222222222222,-0.22
3.9,-0.215
3.9027777777777777,-0.21
3.9055555555555554,-0.2
3.908333333333333,-0.185
3.911111111111111,-0.17
3.9138888888888888,-0.14
3.9166666666666665,-0.125
3.9194444444444443,-0.115
3.922222222222222,-0.105
3.925,-0.1
3.9277777777777776,-0.08
3.9305555555555554,-0.065
3.933333333333333,-0.055
3.936111111111111,-0.06
3.938888888888889,-0.06
3.941666666666667,-0.06
3.9444444444444446,-0.065
3.9472222222222224,-0.06
3.95,-0.055
3.952777777777778,-0.07
3.9555555555555557,-0.09
3.9583333333333335,-0.145
3.9611111111111112,-0.19
3.963888888888889,-0.225
3.966666666666667,-0.27
3.9694444444444446,-0.31
3.9722222222222223,-0.345
3.975,-0.36
3.977777777777778,-0.36
3.9805555555555556,-0.345
3.9833333333333334,-0.32
3.986111111111111,-0.315
3.988888888888889,-0.325
3.9916666666666667,-0.34
3.9944444444444445,-0.345
3.9972222222222222,-0.345
4.0,-0.34
4.002777777777778,-0.345
4.0055555555555555,-0.37
4.008333333333334,-0.365
4.011111111111111,-0.345
4.013888888888889,-0.335
4.016666666666667,-0.315
4.019444444444445,-0.325
4.022222222222222,-0.345
4.025,-0.37
4.027777777777778,-0.36
4.030555555555556,-0.335
4.033333333333333,-0.34
4.036111111111111,-0.34
4.038888888888889,-0.335
4.041666666666667,-0.36
4.044444444444444,-0.36
4.0472222222222225,-0.35
4.05,-0.33
4.052777777777778,-0.335
4.055555555555555,-0.325
4.058333333333334,-0.335
4.061111111111111,-0.34
4.063888888888889,-0.345
4.066666666666666,-0.325
4.069444444444445,-0.325
4.072222222222222,-0.34
4.075,-0.375
4.0777777777777775,-0.39
4.080555555555556,-0.37
4.083333333333333,-0.33
4.086111111111111,-0.31
4.088888888888889,-0.3
4.091666666666667,-0.29
4.094444444444444,-0.295
4.097222222222222,-0.345
4.1,-0.445
4.102777777777778,-0.495
4.105555555555555,-0.525
4.108333333333333,-0.53
4.111111111111111,-0.515
4.113888888888889,-0.525
4.116666666666666,-0.54
4.1194444444444445,-0.595
4.122222222222222,-0.64
4.125,-0.69
4.127777777777778,-0.71
4.1305555555555555,-0.73
4.133333333333334,-0.76
4.136111111111111,-0.825
4.138888888888889,-0.875
4.141666666666667,-0.915
4.144444444444445,-0.92
4.147222222222222,-0.915
4.15,-0.88
4.152777777777778,-0.865
4.155555555555556,-0.85
4.158333333333333,-0.835
4.161111111111111,-0.77
4.163888888888889,-0.665
4.166666666666667,-0.585
4.169444444444444,-0.53
4.1722222222222225,-0.485
4.175,-0.455
4.177777777777778,-0.405
4.180555555555555,-0.355
4.183333333333334,-0.325
4.186111111111111,-0.3
4.188888888888889,-0.295
4.191666666666666,-0.3
4.194444444444445,-0.3
4.197222222222222,-0.29
4.2,-0.275
4.2027777777777775,-0.28
4.205555555555556,-0.285
4.208333333333333,-0.285
4.211111111111111,-0.265
4.213888888888889,-0.245
4.216666666666667,-0.245
4.219444444444444,-0.25
4.222222222222222,-0.28
4.225,-0.3
4.227777777777778,-0.275
4.230555555555555,-0.23
4.233333333333333,-0.215
4.236111111111111,-0.21
4.238888888888889,-0.22
4.241666666666666,-0.24
4.2444444444444445,-0.25
4.247222222222222,-0.255
4.25,-0.245
4.252777777777778,-0.24
4.2555555555555555,-0.25
4.258333333333334,-0.245
4.261111111111111,-0.245
4.263888888888889,-0.235
4.266666666666667,-0.23
4.269444444444445,-0.22
4.272222222222222,-0.225
4.275,-0.23
4.277777777777778,-0.205
4.280555555555556,-0.2
4.283333333333333,-0.19
4.286111111111111,-0.185
4.288888888888889,-0.18
4.291666666666667,-0.195
4.294444444444444,-0.21
4.2972222222222225,-0.215
4.3,-0.19
4.302777777777778,-0.18
4.305555555555555,-0.175
4.308333333333334,-0.185
4.311111111111111,-0.195
4.313888888888889,-0.18
4.316666666666666,-0.16
4.319444444444445,-0.145
4.322222222222222,-0.16
4.325,-0.165
4.3277777777777775,-0.145
4.330555555555556,-0.145
4.333333333333333,-0.13
4.336111111111111,-0.16
4.338888888888889,-0.17
4.341666666666667,-0.185
4.344444444444444,-0.16
4.347222222222222,-0.115
4.35,-0.1
4.352777777777778,-0.105
4.355555555555555,-0.125
4.358333333333333,-0.135
4.361111111111111,-0.105
4.363888888888889,-0.07
4.366666666666666,-0.045
4.3694444444444445,-0.045
4.372222222222222,-0.1
4.375,-0.115
4.377777777777778,-0.105
4.3805555555555555,-0.095
4.383333333333334,-0.07
4.386111111111111,-0.075
4.388888888888889,-0.09
4.391666666666667,-0.115
4.394444444444445,-0.13
4.397222222222222,-0.125
4.4,-0.095
4.402777777777778,-0.105
4.405555555555556,-0.145
4.408333333333333,-0.125
4.411111111111111,-0.1
4.413888888888889,-0.1
4.416666666666667,-0.12
4.419444444444444,-0.155
4.4222222222222225,-0.165
4.425,-0.175
4.427777777777778,-0.185
4.430555555555555,-0.17
4.433333333333334,-0.17
4.436111111111111,-0.195
4.438888888888889,-0.235
4.441666666666666,-0.24
4.444444444444445,-0.2
4.447222222222222,-0.165
4.45,-0.15
4.4527777777777775,-0.18
4.455555555555556,-0.205
4.458333333333333,-0.22
4.461111111111111,-0.185
4.463888888888889,-0.17
4.466666666666667,-0.16
4.469444444444444,-0.16
4.472222222222222,-0.19
4.475,-0.225
4.477777777777778,-0.22
4.480555555555555,-0.2
4.483333333333333,-0.195
4.486111111111111,-0.215
4.488888888888889,-0.19
4.491666666666666,-0.2
4.4944444444444445,-0.21
4.497222222222222,-0.215
4.5,-0.21
4.502777777777778,-0.215
4.5055555555555555,-0.22
4.508333333333334,-0.205
4.511111111111111,-0.195
4.513888888888889,-0.175
4.516666666666667,-0.15
4.519444444444445,-0.17
4.522222222222222,-0.2
4.525,-0.23
4.527777777777778,-0.235
4.530555555555556,-0.225
4.533333333333333,-0.21
4.536111111111111,-0.21
4.538888888888889,-0.215
4.541666666666667,-0.23
4.544444444444444,-0.225
4.5472222222222225,-0.22
4.55,-0.225
4.552777777777778,-0.235
4.555555555555555,-0.24
4.558333333333334,-0.245
4.561111111111111,-0.24
4.563888888888889,-0.245
4.566666666666666,-0.25
4.569444444444445,-0.26
4.572222222222222,-0.275
4.575,-0.29
4.5777777777777775,-0.27
4.580555555555556,-0.23
4.583333333333333,-0.25
4.586111111111111,-0.28
4.588888888888889,-0.305
4.591666666666667,-0.295
4.594444444444444,-0.31
4.597222222222222,-0.33
4.6,-0.35
4.602777777777778,-0.34
4.605555555555555,-0.345
4.608333333333333,-0.375
4.611111111111111,-0.41
4.613888888888889,-0.345
4.616666666666666,-0.26
4.6194444444444445,-0.25
4.622222222222222,-0.3
4.625,-0.3
4.627777777777778,-0.275
4.6305555555555555,-0.245
4.633333333333334,-0.23
4.636111111111111,-0.245
4.638888888888889,-0.28
4.641666666666667,-0.285
4.644444444444445,-0.235
4.647222222222222,-0.195
4.65,-0.2
4.652777777777778,-0.225
4.655555555555556,-0.24
4.658333333333333,-0.24
4.661111111111111,-0.23
4.663888888888889,-0.225
4.666666666666667,-0.23
4.669444444444444,-0.235
4.6722222222222225,-0.245
4.675,-0.265
4.677777777777778,-0.25
4.680555555555555,-0.22
4.683333333333334,-0.225
4.686111111111111,-0.22
4.688888888888889,-0.24
4.691666666666666,-0.255
4.694444444444445,-0.26
4.697222222222222,-0.235
4.7,-0.225
4.7027777777777775,-0.23
4.705555555555556,-0.245
4.708333333333333,-0.245
4.711111111111111,-0.245
4.713888888888889,-0.23
4.716666666666667,-0.23
4.719444444444444,-0.225
4.722222222222222,-0.245
4.725,-0.255
4.727777777777778,-0.25
4.730555555555555,-0.235
4.733333333333333,-0.21
4.736111111111111,-0.22
4.738888888888889,-0.255
4.741666666666666,-0.265
4.7444444444444445,-0.265
4.747222222222222,-0.26
4.75,-0.23
4.752777777777778,-0.225
4.7555555555555555,-0.225
4.758333333333334,-0.27
4.761111111111111,-0.255
4.763888888888889,-0.265
4.766666666666667,-0.26
4.769444444444445,-0.27
4.772222222222222,-0.25
4.775,-0.235
4.777777777777778,-0.225
4.780555555555556,-0.25
4.783333333333333,-0.285
4.786111111111111,-0.3
4.788888888888889,-0.27
4.791666666666667,-0.205
4.794444444444444,-0.12
4.7972222222222225,-0.105
4.8,-0.145
4.802777777777778,-0.145
4.805555555555555,-0.14
4.808333333333334,-0.145
4.811111111111111,-0.15
4.813888888888889,-0.16
4.816666666666666,-0.145
4.819444444444445,-0.11
4.822222222222222,-0.09
4.825,-0.095
4.8277777777777775,-0.08
4.830555555555556,-0.065
4.833333333333333,-0.045
4.836111111111111,-0.035
4.838888888888889,-0.045
4.841666666666667,-0.035
4.844444444444444,-0.015
4.847222222222222,-0.005
4.85,0.0
4.852777777777778,-0.015
4.855555555555555,0.0
4.858333333333333,0.005
4.861111111111111,0.01
4.863888888888889,0.01
4.866666666666666,0.005
4.8694444444444445,-0.03
4.872222222222222,-0.08
4.875,-0.13
4.877777777777778,-0.165
4.8805555555555555,-0.205
4.883333333333334,-0.25
4.886111111111111,-0.28
4.888888888888889,-0.285
4.891666666666667,-0.275
4.894444444444445,-0.24
4.897222222222222,-0.22
4.9,-0.245
4.902777777777778,-0.28
4.905555555555556,-0.315
4.908333333333333,-0.33
4.911111111111111,-0.3
4.913888888888889,-0.265
4.916666666666667,-0.25
4.919444444444444,-0.265
4.9222222222222225,-0.31
4.925,-0.365
4.927777777777778,-0.39
4.930555555555555,-0.39
4.933333333333334,-0.36
4.936111111111111,-0.3
4.938888888888889,-0.255
4.941666666666666,-0.27
4.944444444444445,-0.295
4.947222222222222,-0.285
4.95,-0.305
4.9527777777777775,-0.325
4.955555555555556,-0.28
4.958333333333333,-0.23
4.961111111111111,-0.205
4.963888888888889,-0.23
4.966666666666667,-0.255
4.969444444444444,-0.255
4.972222222222222,-0.27
4.975,-0.3
4.977777777777778,-0.31
4.980555555555555,-0.28
4.983333333333333,-0.265
4.986111111111111,-0.26
4.988888888888889,-0.3
4.991666666666666,-0.385
4.9944444444444445,-0.43
4.997222222222222,-0.4
5.0,-0.36
5.002777777777778,-0.38
5.0055555555555555,-0.4
5.008333333333334,-0.425
5.011111111111111,-0.465
5.013888888888889,-0.51
5.016666666666667,-0.56
5.019444444444445,-0.59
5.022222222222222,-0.575
5.025,-0.59
5.027777777777778,-0.61
5.030555555555556,-0.63
5.033333333333333,-0.675
5.036111111111111,-0.705
5.038888888888889,-0.73
5.041666666666667,-0.735
5.044444444444444,-0.75
5.0472222222222225,-0.78
5.05,-0.84
5.052777777777778,-0.905
5.055555555555555,-0.945
5.058333333333334,-0.955
5.061111111111111,-0.9
5.063888888888889,-0.825
5.066666666666666,-0.76
5.069444444444445,-0.73
5.072222222222222,-0.7
5.075,-0.635
5.0777777777777775,-0.565
5.080555555555556,-0.5
5.083333333333333,-0.45
5.086111111111111,-0.405
5.088888888888889,-0.315
5.091666666666667,-0.235
5.094444444444444,-0.215
5.097222222222222,-0.21
5.1,-0.195
5.102777777777778,-0.195
5.105555555555555,-0.195
5.108333333333333,-0.225
5.111111111111111,-0.215
5.113888888888889,-0.205
5.116666666666666,-0.175
5.1194444444444445,-0.19
5.122222222222222,-0.215
5.125,-0.235
5.127777777777778,-0.23
5.1305555555555555,-0.205
5.133333333333334,-0.19
5.136111111111111,-0.18
5.138888888888889,-0.165
5.141666666666667,-0.15
5.144444444444445,-0.15
5.147222222222222,-0.175
5.15,-0.215
5.152777777777778,-0.26
5.155555555555556,-0.235
5.158333333333333,-0.185
5.161111111111111,-0.115
5.163888888888889,-0.075
5.166666666666667,-0.065
5.169444444444444,-0.1
5.1722222222222225,-0.125
5.175,-0.14
5.177777777777778,-0.165
5.180555555555555,-0.14
5.183333333333334,-0.145
5.186111111111111,-0.135
5.188888888888889,-0.13
5.191666666666666,-0.13
5.194444444444445,-0.125
5.197222222222222,-0.12
5.2,-0.11
5.2027777777777775,-0.11
5.205555555555556,-0.11
5.208333333333333,-0.13
5.211111111111111,-0.12
5.213888888888889,-0.095
5.216666666666667,-0.07
5.219444444444444,-0.06
5.222222222222222,-0.06
5.225,-0.06
5.227777777777778,-0.075
5.230555555555555,-0.08
5.233333333333333,-0.075
5.236111111111111,-0.07
5.238888888888889,-0.065
5.241666666666666,-0.065
5.2444444444444445,-0.065
5.247222222222222,-0.07
5.25,-0.07
5.252777777777778,-0.075
5.2555555555555555,-0.035
5.258333333333334,-0.015
5.261111111111111,-0.03
5.263888888888889,-0.055
5.266666666666667,-0.045
5.269444444444445,-0.025
5.272222222222222,-0.015
5.275,-0.02
5.277777777777778,-0.005
5.280555555555556,0.005
5.283333333333333,-0.01
5.286111111111111,-0.01
5.288888888888889,-0.01
5.291666666666667,-0.01
5.294444444444444,-0.015
5.2972222222222225,-0.01
5.3,-0.01
5.302777777777778,-0.04
5.305555555555555,-0.065
5.308333333333334,-0.08
5.311111111111111,-0.09
5.313888888888889,-0.09
5.316666666666666,-0.055
5.319444444444445,-0.035
5.322222222222222,-0.04
5.325,-0.075
5.3277777777777775,-0.1
5.330555555555556,-0.09
5.333333333333333,-0.075
5.336111111111111,-0.07
5.338888888888889,-0.085
5.341666666666667,-0.115
5.344444444444444,-0.13
5.347222222222222,-0.125
5.35,-0.125
5.352777777777778,-0.135
5.355555555555555,-0.16
5.358333333333333,-0.17
5.361111111111111,-0.16
5.363888888888889,-0.16
5.366666666666666,-0.165
5.3694444444444445,-0.155
5.372222222222222,-0.17
5.375,-0.18
5.377777777777778,-0.18
5.3805555555555555,-0.175
5.383333333333334,-0.18
5.386111111111111,-0.185
5.388888888888889,-0.195
5.391666666666667,-0.205
5.394444444444445,-0.21
5.397222222222222,-0.215
5.4,-0.205
5.402777777777778,-0.2
5.405555555555556,-0.21
5.408333333333333,-0.21
5.411111111111111,-0.215
5.413888888888889,-0.225
5.416666666666667,-0.225
5.419444444444444,-0.255
5.4222222222222225,-0.25
5.425,-0.255
5.427777777777778,-0.245
5.430555555555555,-0.25
5.433333333333334,-0.25
5.436111111111111,-0.24
5.438888888888889,-0.215
5.441666666666666,-0.21
5.444444444444445,-0.22
5.447222222222222,-0.23
5.45,-0.225
5.4527777777777775,-0.225
5.455555555555556,-0.245
5.458333333333333,-0.27
5.461111111111111,-0.26
5.463888888888889,-0.255
5.466666666666667,-0.245
5.469444444444444,-0.245
5.472222222222222,-0.265
5.475,-0.285
5.477777777777778,-0.285
5.480555555555555,-0.29
5.483333333333333,-0.285
5.486111111111111,-0.3
5.488888888888889,-0.31
5.491666666666666,-0.315
5.4944444444444445,-0.315
5.497222222222222,-0.305
5.5,-0.305
5.502777777777778,-0.315
5.5055555555555555,-0.34
5.508333333333334,-0.35
5.511111111111111,-0.35
5.513888888888889,-0.33
5.516666666666667,-0.325
5.519444444444445,-0.325
5.522222222222222,-0.335
5.525,-0.37
5.527777777777778,-0.37
5.530555555555556,-0.37
5.533333333333333,-0.345
5.536111111111111,-0.345
5.538888888888889,-0.35
5.541666666666667,-0.365
5.544444444444444,-0.375
5.5472222222222225,-0.365
5.55,-0.355
5.552777777777778,-0.36
5.555555555555555,-0.36
5.558333333333334,-0.355
5.561111111111111,-0.345
5.563888888888889,-0.365
5.566666666666666,-0.405
5.569444444444445,-0.41
5.572222222222222,-0.365
5.575,-0.33
5.5777777777777775,-0.32
5.580555555555556,-0.33
5.583333333333333,-0.36
5.586111111111111,-0.37
5.588888888888889,-0.37
5.591666666666667,-0.37
5.594444444444444,-0.37
5.597222222222222,-0.37
5.6,-0.365
5.602777777777778,-0.375
5.605555555555555,-0.37
5.608333333333333,-0.38
5.611111111111111,-0.36
5.613888888888889,-0.345
5.616666666666666,-0.34
5.6194444444444445,-0.33
5.622222222222222,-0.335
5.625,-0.36
5.627777777777778,-0.37
5.6305555555555555,-0.35
5.633333333333334,-0.34
5.636111111111111,-0.35
5.638888888888889,-0.37
5.641666666666667,-0.39
5.644444444444445,-0.385
5.647222222222222,-0.36
5.65,-0.35
5.652777777777778,-0.35
5.655555555555556,-0.35
5.658333333333333,-0.36
5.661111111111111,-0.355
5.663888888888889,-0.34
5.666666666666667,-0.355
5.669444444444444,-0.36
5.6722222222222225,-0.375
5.675,-0.36
5.677777777777778,-0.355
5.680555555555555,-0.365
5.683333333333334,-0.375
5.686111111111111,-0.38
5.688888888888889,-0.37
5.691666666666666,-0.355
5.694444444444445,-0.35
5.697222222222222,-0.35
5.7,-0.36
5.7027777777777775,-0.365
5.705555555555556,-0.375
5.708333333333333,-0.375
5.711111111111111,-0.355
5.713888888888889,-0.35
5.716666666666667,-0.345
5.719444444444444,-0.345
5.722222222222222,-0.365
5.725,-0.37
5.727777777777778,-0.34
5.730555555555555,-0.305
5.733333333333333,-0.3
5.736111111111111,-0.32
5.738888888888889,-0.34
5.741666666666666,-0.33
5.7444444444444445,-0.29
5.747222222222222,-0.26
5.75,-0.26
5.752777777777778,-0.275
5.7555555555555555,-0.285
5.758333333333334,-0.29
5.761111111111111,-0.295
5.763888888888889,-0.27
5.766666666666667,-0.24
5.769444444444445,-0.175
5.772222222222222,-0.15
5.775,-0.155
5.777777777777778,-0.155
5.780555555555556,-0.14
5.783333333333333,-0.12
5.786111111111111,-0.125
5.788888888888889,-0.135
5.791666666666667,-0.125
5.794444444444444,-0.125
5.7972222222222225,-0.115
5.8,-0.1
5.802777777777778,-0.105
5.805555555555555,-0.135
5.808333333333334,-0.175
5.811111111111111,-0.2
5.813888888888889,-0.21
5.816666666666666,-0.235
5.819444444444445,-0.28
5.822222222222222,-0.34
5.825,-0.39
5.8277777777777775,-0.41
5.830555555555556,-0.405
5.833333333333333,-0.385
5.836111111111111,-0.38
5.838888888888889,-0.385
5.841666666666667,-0.395
5.844444444444444,-0.38
5.847222222222222,-0.37
5.85,-0.365
5.852777777777778,-0.385
5.855555555555555,-0.395
5.858333333333333,-0.4
5.861111111111111,-0.37
5.863888888888889,-0.37
5.866666666666666,-0.37
5.8694444444444445,-0.37
5.872222222222222,-0.375
5.875,-0.385
5.877777777777778,-0.4
5.8805555555555555,-0.39
5.883333333333334,-0.36
5.886111111111111,-0.365
5.888888888888889,-0.38
5.891666666666667,-0.395
5.894444444444445,-0.405
5.897222222222222,-0.39
5.9,-0.365
5.902777777777778,-0.355
5.905555555555556,-0.36
5.908333333333333,-0.38
5.911111111111111,-0.39
5.913888888888889,-0.365
5.916666666666667,-0.345
5.919444444444444,-0.355
5.9222222222222225,-0.39
5.925,-0.445
5.927777777777778,-0.445
5.930555555555555,-0.415
5.933333333333334,-0.385
5.936111111111111,-0.39
5.938888888888889,-0.395
5.941666666666666,-0.425
5.944444444444445,-0.465
5.947222222222222,-0.545
5.95,-0.61
5.9527777777777775,-0.64
5.955555555555556,-0.64
5.958333333333333,-0.65
5.961111111111111,-0.655
5.963888888888889,-0.68
5.966666666666667,-0.72
5.969444444444444,-0.76
5.972222222222222,-0.82
5.975,-0.86
5.977777777777778,-0.84
5.980555555555555,-0.85
5.983333333333333,-0.9
5.986111111111111,-0.945
5.988888888888889,-0.985
5.991666666666666,-1.0
5.9944444444444445,-0.96
5.997222222222222,-0.895
6.0,-0.855
6.002777777777778,-0.84
6.0055555555555555,-0.805
6.008333333333334,-0.745
6.011111111111111,-0.665
6.013888888888889,-0.62
6.016666666666667,-0.565
6.019444444444445,-0.52
6.022222222222222,-0.445
6.025,-0.4
6.027777777777778,-0.355
6.030555555555556,-0.345
6.033333333333333,-0.335
6.036111111111111,-0.33
6.038888888888889,-0.335
6.041666666666667,-0.34
6.044444444444444,-0.315
6.0472222222222225,-0.295
6.05,-0.285
6.052777777777778,-0.285
6.055555555555555,-0.31
6.058333333333334,-0.325
6.061111111111111,-0.315
6.063888888888889,-0.285
6.066666666666666,-0.275
6.069444444444445,-0.28
6.072222222222222,-0.3
6.075,-0.315
6.0777777777777775,-0.3
6.080555555555556,-0.305
6.083333333333333,-0.285
6.086111111111111,-0.265
6.088888888888889,-0.275
6.091666666666667,-0.28
6.094444444444444,-0.28
6.097222222222222,-0.275
6.1,-0.28
6.102777777777778,-0.29
6.105555555555555,-0.3
6.108333333333333,-0.31
6.111111111111111,-0.285
6.113888888888889,-0.25
6.116666666666666,-0.22
6.1194444444444445,-0.225
6.122222222222222,-0.245
6.125,-0.265
6.127777777777778,-0.25
6.1305555555555555,-0.24
6.133333333333334,-0.225
6.136111111111111,-0.225
6.138888888888889,-0.215
6.141666666666667,-0.225
6.144444444444445,-0.22
6.147222222222222,-0.215
6.15,-0.2
6.152777777777778,-0.2
6.155555555555556,-0.2
6.158333333333333,-0.205
6.161111111111111,-0.205
6.163888888888889,-0.205
6.166666666666667,-0.19
6.169444444444444,-0.195
6.1722222222222225,-0.19
6.175,-0.205
6.177777777777778,-0.19
6.180555555555555,-0.16
6.183333333333334,-0.135
6.186111111111111,-0.125
6.188888888888889,-0.145
6.191666666666666,-0.155
6.194444444444445,-0.14
6.197222222222222,-0.14
6.2,-0.13
6.2027777777777775,-0.135
6.205555555555556,-0.15
6.208333333333333,-0.155
6.211111111111111,-0.15
6.213888888888889,-0.125
6.216666666666667,-0.1
6.219444444444444,-0.11
6.222222222222222,-0.11
6.225,-0.14
6.227777777777778,-0.13
6.230555555555555,-0.13
6.233333333333333,-0.11
6.236111111111111,-0.13
6.238888888888889,-0.12
6.241666666666666,-0.15
6.2444444444444445,-0.145
6.247222222222222,-0.135
6.25,-0.135
6.252777777777778,-0.155
6.2555555555555555,-0.175
6.258333333333334,-0.165
6.261111111111111,-0.14
6.263888888888889,-0.135
6.266666666666667,-0.15
6.269444444444445,-0.175
6.272222222222222,-0.2
6.275,-0.205
6.277777777777778,-0.2
6.280555555555556,-0.19
6.283333333333333,-0.19
6.286111111111111,-0.215
6.288888888888889,-0.215
6.291666666666667,-0.245
6.294444444444444,-0.235
6.2972222222222225,-0.245
6.3,-0.245
6.302777777777778,-0.25
6.305555555555555,-0.255
6.308333333333334,-0.265
6.311111111111111,-0.25
6.313888888888889,-0.23
6.316666666666666,-0.23
6.319444444444445,-0.25
6.322222222222222,-0.26
6.325,-0.28
6.3277777777777775,-0.26
6.330555555555556,-0.265
6.333333333333333,-0.265
6.336111111111111,-0.295
6.338888888888889,-0.315
6.341666666666667,-0.3
6.344444444444444,-0.255
6.347222222222222,-0.225
6.35,-0.23
6.352777777777778,-0.26
6.355555555555555,-0.285
6.358333333333333,-0.31
6.361111111111111,-0.305
6.363888888888889,-0.28
6.366666666666666,-0.26
6.3694444444444445,-0.245
6.372222222222222,-0.25
6.375,-0.28
6.377777777777778,-0.28
6.3805555555555555,-0.285
6.383333333333334,-0.275
6.386111111111111,-0.28
6.388888888888889,-0.28
6.391666666666667,-0.295
6.394444444444445,-0.305
6.397222222222222,-0.285
6.4,-0.275
6.402777777777778,-0.275
6.405555555555556,-0.295
6.408333333333333,-0.315
6.411111111111111,-0.31
6.413888888888889,-0.29
6.416666666666667,-0.275
6.419444444444444,-0.295
6.4222222222222225,-0.31
6.425,-0.325
6.427777777777778,-0.305
6.430555555555555,-0.3
6.433333333333334,-0.28
6.436111111111111,-0.31
6.438888888888889,-0.32
6.441666666666666,-0.33
6.444444444444445,-0.305
6.447222222222222,-0.31
6.45,-0.305
6.4527777777777775,-0.315
6.455555555555556,-0.345
6.458333333333333,-0.345
6.461111111111111,-0.34
6.463888888888889,-0.33
6.466666666666667,-0.32
6.469444444444444,-0.33
6.472222222222222,-0.345
6.475,-0.35
6.477777777777778,-0.35
6.480555555555555,-0.345
6.483333333333333,-0.345
6.486111111111111,-0.345
6.488888888888889,-0.37
6.491666666666666,-0.385
6.4944444444444445,-0.375
6.497222222222222,-0.35
6.5,-0.335
6.502777777777778,-0.325
6.5055555555555555,-0.345
6.508333333333334,-0.365
6.511111111111111,-0.38
6.513888888888889,-0.385
6.516666666666667,-0.375
6.519444444444445,-0.37
6.522222222222222,-0.365
6.525,-0.355
6.527777777777778,-0.35
6.530555555555556,-0.345
6.533333333333333,-0.33
6.536111111111111,-0.345
6.538888888888889,-0.36
6.541666666666667,-0.365
6.544444444444444,-0.35
6.5472222222222225,-0.35
6.55,-0.35
6.552777777777778,-0.365
6.555555555555555,-0.375
6.558333333333334,-0.385
6.561111111111111,-0.375
6.563888888888889,-0.35
6.566666666666666,-0.325
6.569444444444445,-0.32
6.572222222222222,-0.325
6.575,-0.34
6.5777777777777775,-0.34
6.580555555555556,-0.335
6.583333333333333,-0.33
6.586111111111111,-0.33
6.588888888888889,-0.315
6.591666666666667,-0.33
6.594444444444444,-0.33
6.597222222222222,-0.325
6.6,-0.32
6.602777777777778,-0.32
6.605555555555555,-0.33
6.608333333333333,-0.335
6.611111111111111,-0.32
6.613888888888889,-0.325
6.616666666666666,-0.3
6.6194444444444445,-0.31
6.622222222222222,-0.315
6.625,-0.325
6.627777777777778,-0.32
6.6305555555555555,-0.31
6.633333333333334,-0.305
6.636111111111111,-0.3
6.638888888888889,-0.31
6.641666666666667,-0.315
6.644444444444445,-0.305
6.647222222222222,-0.3
6.65,-0.29
6.652777777777778,-0.28
6.655555555555556,-0.3
6.658333333333333,-0.315
6.661111111111111,-0.315
6.663888888888889,-0.305
6.666666666666667,-0.29
6.669444444444444,-0.305
6.6722222222222225,-0.305
6.675,-0.315
6.677777777777778,-0.315
6.680555555555555,-0.31
6.683333333333334,-0.29
6.686111111111111,-0.295
6.688888888888889,-0.31
6.691666666666666,-0.315
6.694444444444445,-0.305
6.697222222222222,-0.295
6.7,-0.3
6.7027777777777775,-0.305
6.705555555555556,-0.29
6.708333333333333,-0.315
6.711111111111111,-0.32
6.713888888888889,-0.3
6.716666666666667,-0.245
6.719444444444444,-0.22
6.722222222222222,-0.21
6.725,-0.22
6.727777777777778,-0.22
6.730555555555555,-0.21
6.733333333333333,-0.19
6.736111111111111,-0.2
6.738888888888889,-0.17
6.741666666666666,-0.165
6.7444444444444445,-0.13
6.747222222222222,-0.12
6.75,-0.11
6.752777777777778,-0.085
6.7555555555555555,-0.095
6.758333333333334,-0.095
6.761111111111111,-0.1
6.763888888888889,-0.095
6.766666666666667,-0.085
6.769444444444445,-0.075
6.772222222222222,-0.07
6.775,-0.06
6.777777777777778,-0.06
6.780555555555556,-0.045
6.783333333333333,-0.07
6.786111111111111,-0.105
6.788888888888889,-0.16
6.791666666666667,-0.2
6.794444444444444,-0.215
6.7972222222222225,-0.25
6.8,-0.28
6.802777777777778,-0.32
6.805555555555555,-0.335
6.808333333333334,-0.35
6.811111111111111,-0.345
6.813888888888889,-0.33
6.816666666666666,-0.34
6.819444444444445,-0.34
6.822222222222222,-0.36
6.825,-0.36
6.8277777777777775,-0.38
6.830555555555556,-0.36
6.833333333333333,-0.32
6.836111111111111,-0.3
6.838888888888889,-0.315
6.841666666666667,-0.33
6.844444444444444,-0.345
6.847222222222222,-0.35
6.85,-0.33
6.852777777777778,-0.34
6.855555555555555,-0.36
6.858333333333333,-0.35
6.861111111111111,-0.35
6.863888888888889,-0.345
6.866666666666666,-0.345
6.8694444444444445,-0.35
6.872222222222222,-0.36
6.875,-0.365
6.877777777777778,-0.355
6.8805555555555555,-0.34
6.883333333333334,-0.335
6.886111111111111,-0.34
6.888888888888889,-0.34
6.891666666666667,-0.335
6.894444444444445,-0.35
6.897222222222222,-0.35
6.9,-0.355
6.902777777777778,-0.35
6.905555555555556,-0.35
6.908333333333333,-0.375
6.911111111111111,-0.39
6.913888888888889,-0.375
6.916666666666667,-0.38
6.919444444444444,-0.4
6.9222222222222225,-0.42
6.925,-0.425
6.927777777777778,-0.415
6.930555555555555,-0.415
6.933333333333334,-0.39
6.936111111111111,-0.385
6.938888888888889,-0.435
6.941666666666666,-0.53
6.944444444444445,-0.585
6.947222222222222,-0.61
6.95,-0.585
6.9527777777777775,-0.575
6.955555555555556,-0.605
6.958333333333333,-0.635
6.961111111111111,-0.665
6.963888888888889,-0.7
6.966666666666667,-0.725
6.969444444444444,-0.76
6.972222222222222,-0.79
6.975,-0.795
6.977777777777778,-0.8
6.980555555555555,-0.85
6.983333333333333,-0.91
6.986111111111111,-0.955
6.988888888888889,-0.965
6.991666666666666,-0.975
6.9944444444444445,-0.95
6.997222222222222,-0.91
7.0,-0.87
7.002777777777778,-0.84
7.0055555555555555,-0.81
7.008333333333334,-0.775
7.011111111111111,-0.695
7.013888888888889,-0.615
7.016666666666667,-0.555
7.019444444444445,-0.51
7.022222222222222,-0.485
7.025,-0.44
7.027777777777778,-0.36
7.030555555555556,-0.335
7.033333333333333,-0.315
7.036111111111111,-0.295
7.038888888888889,-0.285
7.041666666666667,-0.285
7.044444444444444,-0.285
7.0472222222222225,-0.275
7.05,-0.265
7.052777777777778,-0.245
7.055555555555555,-0.255
7.058333333333334,-0.26
7.061111111111111,-0.26
7.063888888888889,-0.24
7.066666666666666,-0.225
7.069444444444445,-0.245
7.072222222222222,-0.25
7.075,-0.27
7.0777777777777775,-0.27
7.080555555555556,-0.25
7.083333333333333,-0.24
7.086111111111111,-0.22
7.088888888888889,-0.245
7.091666666666667,-0.25
7.094444444444444,-0.24
7.097222222222222,-0.23
7.1,-0.22
7.102777777777778,-0.22
7.105555555555555,-0.22
7.108333333333333,-0.235
7.111111111111111,-0.215
7.113888888888889,-0.215
7.116666666666666,-0.215
7.1194444444444445,-0.2
7.122222222222222,-0.215
7.125,-0.22
7.127777777777778,-0.215
7.1305555555555555,-0.225
7.133333333333334,-0.215
7.136111111111111,-0.215
7.138888888888889,-0.22
7.141666666666667,-0.23
7.144444444444445,-0.21
7.147222222222222,-0.195
7.15,-0.2
7.152777777777778,-0.2
7.155555555555556,-0.185
7.158333333333333,-0.18
7.161111111111111,-0.17
7.163888888888889,-0.18
7.166666666666667,-0.19
7.169444444444444,-0.185
7.1722222222222225,-0.175
7.175,-0.195
7.177777777777778,-0.17
7.180555555555555,-0.165
7.183333333333334,-0.14
7.186111111111111,-0.13
7.188888888888889,-0.13
7.191666666666666,-0.13
7.194444444444445,-0.135
7.197222222222222,-0.13
7.2,-0.135
7.2027777777777775,-0.125
7.205555555555556,-0.12
7.208333333333333,-0.115
7.211111111111111,-0.115
7.213888888888889,-0.13
7.216666666666667,-0.115
7.219444444444444,-0.115
7.222222222222222,-0.11
7.225,-0.115
7.227777777777778,-0.085
7.230555555555555,-0.07
7.233333333333333,-0.08
7.236111111111111,-0.08
7.238888888888889,-0.105
7.241666666666666,-0.115
7.2444444444444445,-0.115
7.247222222222222,-0.115
7.25,-0.12
7.252777777777778,-0.12
7.2555555555555555,-0.12
7.258333333333334,-0.125
7.261111111111111,-0.13
7.263888888888889,-0.13
7.266666666666667,-0.135
7.269444444444445,-0.14
7.272222222222222,-0.155
7.275,-0.155
7.277777777777778,-0.145
7.280555555555556,-0.145
7.283333333333333,-0.155
7.286111111111111,-0.19
7.288888888888889,-0.205
7.291666666666667,-0.22
7.294444444444444,-0.21
7.2972222222222225,-0.215
7.3,-0.23
7.302777777777778,-0.24
7.305555555555555,-0.245
7.308333333333334,-0.24
7.311111111111111,-0.25
7.313888888888889,-0.255
7.316666666666666,-0.23
7.319444444444445,-0.235
7.322222222222222,-0.25
7.325,-0.28
7.3277777777777775,-0.27
7.330555555555556,-0.265
7.333333333333333,-0.265
7.336111111111111,-0.285
7.338888888888889,-0.275
7.341666666666667,-0.28
7.344444444444444,-0.255
7.347222222222222,-0.26
7.35,-0.27
7.352777777777778,-0.275
7.355555555555555,-0.29
7.358333333333333,-0.29
7.361111111111111,-0.305
7.363888888888889,-0.315
7.366666666666666,-0.305
7.3694444444444445,-0.3
7.372222222222222,-0.3
7.375,-0.3
7.377777777777778,-0.3
7.3805555555555555,-0.28
7.383333333333334,-0.28
7.386111111111111,-0.28
7.388888888888889,-0.3
7.391666666666667,-0.31
7.394444444444445,-0.305
7.397222222222222,-0.3
7.4,-0.29
7.402777777777778,-0.31
7.405555555555556,-0.345
7.408333333333333,-0.355
7.411111111111111,-0.335
7.413888888888889,-0.315
7.416666666666667,-0.32
7.419444444444444,-0.325
7.4222222222222225,-0.34
7.425,-0.345
7.427777777777778,-0.365
7.430555555555555,-0.355
7.433333333333334,-0.32
7.436111111111111,-0.32
7.438888888888889,-0.34
7.441666666666666,-0.355
7.444444444444445,-0.35
7.447222222222222,-0.33
7.45,-0.31
7.4527777777777775,-0.315
7.455555555555556,-0.335
7.458333333333333,-0.365
7.461111111111111,-0.37
7.463888888888889,-0.355
7.466666666666667,-0.345
7.469444444444444,-0.345
7.472222222222222,-0.38
7.475,-0.405
7.477777777777778,-0.395
7.480555555555555,-0.39
7.483333333333333,-0.38
7.486111111111111,-0.385
7.488888888888889,-0.39
7.491666666666666,-0.41
7.4944444444444445,-0.4
7.497222222222222,-0.4
7.5,-0.41
7.502777777777778,-0.405
7.5055555555555555,-0.395
7.508333333333334,-0.4
7.511111111111111,-0.385
7.513888888888889,-0.39
7.516666666666667,-0.39
7.519444444444445,-0.395
7.522222222222222,-0.41
7.525,-0.41
7.527777777777778,-0.405
7.530555555555556,-0.38
7.533333333333333,-0.385
7.536111111111111,-0.405
7.538888888888889,-0.41
7.541666666666667,-0.415
7.544444444444444,-0.4
7.5472222222222225,-0.395
7.55,-0.4
7.552777777777778,-0.395
7.555555555555555,-0.395
7.558333333333334,-0.41
7.561111111111111,-0.41
7.563888888888889,-0.4
7.566666666666666,-0.385
7.569444444444445,-0.375
7.572222222222222,-0.375
7.575,-0.39
7.5777777777777775,-0.4
7.580555555555556,-0.385
7.583333333333333,-0.38
7.586111111111111,-0.375
7.588888888888889,-0.39
7.591666666666667,-0.4
7.594444444444444,-0.375
7.597222222222222,-0.37
7.6,-0.38
7.602777777777778,-0.4
7.605555555555555,-0.4
7.608333333333333,-0.375
7.611111111111111,-0.345
7.613888888888889,-0.33
7.616666666666666,-0.33
7.6194444444444445,-0.36
7.622222222222222,-0.39
7.625,-0.405
7.627777777777778,-0.375
7.6305555555555555,-0.35
7.633333333333334,-0.345
7.636111111111111,-0.36
7.638888888888889,-0.355
7.641666666666667,-0.365
7.644444444444445,-0.35
7.647222222222222,-0.335
7.65,-0.35
7.652777777777778,-0.36
7.655555555555556,-0.36
7.658333333333333,-0.37
7.661111111111111,-0.355
7.663888888888889,-0.34
7.666666666666667,-0.345
7.669444444444444,-0.34
7.6722222222222225,-0.35
7.675,-0.365
7.677777777777778,-0.38
7.680555555555555,-0.37
7.683333333333334,-0.35
7.686111111111111,-0.325
7.688888888888889,-0.33
7.691666666666666,-0.35
7.694444444444445,-0.36
7.697222222222222,-0.35
7.7,-0.35
7.7027777777777775,-0.325
7.705555555555556,-0.31
7.708333333333333,-0.335
7.711111111111111,-0.345
7.713888888888889,-0.35
7.716666666666667,-0.345
7.719444444444444,-0.355
7.722222222222222,-0.35
7.725,-0.36
7.727777777777778,-0.355
7.730555555555555,-0.345
7.733333333333333,-0.34
7.736111111111111,-0.335
7.738888888888889,-0.345
7.741666666666666,-0.365
7.7444444444444445,-0.39
7.747222222222222,-0.38
7.75,-0.34
7.752777777777778,-0.28
7.7555555555555555,-0.26
7.758333333333334,-0.28
7.761111111111111,-0.28
7.763888888888889,-0.275
7.766666666666667,-0.26
7.769444444444445,-0.26
7.772222222222222,-0.27
7.775,-0.285
7.777777777777778,-0.245
7.780555555555556,-0.23
7.783333333333333,-0.205
7.786111111111111,-0.195
7.788888888888889,-0.185
7.791666666666667,-0.18
7.794444444444444,-0.14
7.7972222222222225,-0.13
7.8,-0.105
7.802777777777778,-0.13
7.805555555555555,-0.15
7.808333333333334,-0.145
7.811111111111111,-0.12
7.813888888888889,-0.105
7.816666666666666,-0.07
7.819444444444445,-0.08
7.822222222222222,-0.085
7.825,-0.135
7.8277777777777775,-0.21
7.830555555555556,-0.25
7.833333333333333,-0.26
7.836111111111111,-0.285
7.838888888888889,-0.315
7.841666666666667,-0.36
7.844444444444444,-0.375
7.847222222222222,-0.385
7.85,-0.365
7.852777777777778,-0.37
7.855555555555555,-0.37
7.858333333333333,-0.395
7.861111111111111,-0.385
7.863888888888889,-0.37
7.866666666666666,-0.375
7.8694444444444445,-0.39
7.872222222222222,-0.395
7.875,-0.4
7.877777777777778,-0.39
7.8805555555555555,-0.385
7.883333333333334,-0.385
7.886111111111111,-0.38
7.888888888888889,-0.4
7.891666666666667,-0.4
7.894444444444445,-0.385
7.897222222222222,-0.375
7.9,-0.36
7.902777777777778,-0.375
7.905555555555556,-0.39
7.908333333333333,-0.39
7.911111111111111,-0.405
7.913888888888889,-0.4
7.916666666666667,-0.39
7.919444444444444,-0.365
7.9222222222222225,-0.385
7.925,-0.395
7.927777777777778,-0.4
7.930555555555555,-0.395
7.933333333333334,-0.39
7.936111111111111,-0.385
7.938888888888889,-0.385
7.941666666666666,-0.4
7.944444444444445,-0.385
7.947222222222222,-0.375
7.95,-0.385
7.9527777777777775,-0.405
7.955555555555556,-0.45
7.958333333333333,-0.44
7.961111111111111,-0.415
7.963888888888889,-0.395
7.966666666666667,-0.375
7.969444444444444,-0.38
7.972222222222222,-0.395
7.975,-0.465
7.977777777777778,-0.54
7.980555555555555,-0.6
7.983333333333333,-0.62
7.986111111111111,-0.64
7.988888888888889,-0.655
7.991666666666666,-0.65
7.9944444444444445,-0.65
7.997222222222222,-0.68
8.0,-0.735
8.002777777777778,-0.78
8.005555555555556,-0.82
8.008333333333333,-0.855
8.011111111111111,-0.855
8.01388888888889,-0.89
8.016666666666667,-0.935
8.019444444444444,-0.985
8.022222222222222,-1.015
8.025,-1.02
8.027777777777779,-1.015
8.030555555555555,-0.985
8.033333333333333,-0.93
8.036111111111111,-0.885
8.03888888888889,-0.88
8.041666666666666,-0.835
8.044444444444444,-0.74
8.047222222222222,-0.655
8.05,-0.585
8.052777777777777,-0.545
8.055555555555555,-0.525
8.058333333333334,-0.505
8.061111111111112,-0.45
8.063888888888888,-0.39
8.066666666666666,-0.335
8.069444444444445,-0.315
8.072222222222223,-0.31
8.075,-0.32
8.077777777777778,-0.31
8.080555555555556,-0.3
8.083333333333334,-0.285
8.08611111111111,-0.285
8.088888888888889,-0.285
8.091666666666667,-0.305
8.094444444444445,-0.29
8.097222222222221,-0.28
8.1,-0.28
8.102777777777778,-0.275
8.105555555555556,-0.28
8.108333333333333,-0.3
8.11111111111111,-0.29
8.113888888888889,-0.275
8.116666666666667,-0.26
8.119444444444444,-0.265
8.122222222222222,-0.27
8.125,-0.28
8.127777777777778,-0.285
8.130555555555556,-0.285
8.133333333333333,-0.275
8.136111111111111,-0.25
8.13888888888889,-0.25
8.141666666666667,-0.26
8.144444444444444,-0.28
8.147222222222222,-0.265
8.15,-0.25
8.152777777777779,-0.26
8.155555555555555,-0.255
8.158333333333333,-0.255
8.161111111111111,-0.26
8.16388888888889,-0.245
8.166666666666666,-0.245
8.169444444444444,-0.24
8.172222222222222,-0.23
8.175,-0.235
8.177777777777777,-0.225
8.180555555555555,-0.225
8.183333333333334,-0.2
8.186111111111112,-0.21
8.188888888888888,-0.225
8.191666666666666,-0.235
8.194444444444445,-0.23
8.197222222222223,-0.225
8.2,-0.2
8.202777777777778,-0.18
8.205555555555556,-0.185
8.208333333333334,-0.185
8.21111111111111,-0.19
8.213888888888889,-0.2
8.216666666666667,-0.185
8.219444444444445,-0.17
8.222222222222221,-0.16
8.225,-0.17
8.227777777777778,-0.17
8.230555555555556,-0.155
8.233333333333333,-0.155
8.23611111111111,-0.15
8.238888888888889,-0.15
8.241666666666667,-0.165
8.244444444444444,-0.16
8.247222222222222,-0.15
8.25,-0.15
8.252777777777778,-0.15
8.255555555555556,-0.15
8.258333333333333,-0.145
8.261111111111111,-0.135
8.26388888888889,-0.145
8.266666666666667,-0.15
8.269444444444444,-0.145
8.272222222222222,-0.15
8.275,-0.165
8.277777777777779,-0.15
8.280555555555555,-0.13
8.283333333333333,-0.12
8.286111111111111,-0.13
8.28888888888889,-0.135
8.291666666666666,-0.145
8.294444444444444,-0.145
8.297222222222222,-0.15
8.3,-0.155
8.302777777777777,-0.165
8.305555555555555,-0.175
8.308333333333334,-0.2
8.311111111111112,-0.215
8.313888888888888,-0.22
8.316666666666666,-0.205
8.319444444444445,-0.21
8.322222222222223,-0.22
8.325,-0.23
8.327777777777778,-0.235
8.330555555555556,-0.245
8.333333333333334,-0.235
8.33611111111111,-0.25
8.338888888888889,-0.27
8.341666666666667,-0.27
8.344444444444445,-0.28
8.347222222222221,-0.265
8.35,-0.255
8.352777777777778,-0.255
8.355555555555556,-0.285
8.358333333333333,-0.29
8.36111111111111,-0.28
8.363888888888889,-0.275
8.366666666666667,-0.27
8.369444444444444,-0.275
8.372222222222222,-0.265
8.375,-0.275
8.377777777777778,-0.285
8.380555555555556,-0.275
8.383333333333333,-0.265
8.386111111111111,-0.28
8.38888888888889,-0.29
8.391666666666667,-0.295
8.394444444444444,-0.285
8.397222222222222,-0.265
8.4,-0.27
8.402777777777779,-0.28
8.405555555555555,-0.295
8.408333333333333,-0.305
8.411111111111111,-0.3
8.41388888888889,-0.28
8.416666666666666,-0.285
8.419444444444444,-0.285
8.422222222222222,-0.305
8.425,-0.315
8.427777777777777,-0.315
8.430555555555555,-0.295
8.433333333333334,-0.295
8.436111111111112,-0.295
8.438888888888888,-0.3
8.441666666666666,-0.31
8.444444444444445,-0.32
8.447222222222223,-0.305
8.45,-0.3
8.452777777777778,-0.305
8.455555555555556,-0.305
8.458333333333334,-0.33
8.46111111111111,-0.335
8.463888888888889,-0.335
8.466666666666667,-0.315
8.469444444444445,-0.315
8.472222222222221,-0.33
8.475,-0.355
8.477777777777778,-0.335
8.480555555555556,-0.325
8.483333333333333,-0.325
8.48611111111111,-0.325
8.488888888888889,-0.33
8.491666666666667,-0.355
8.494444444444444,-0.36
8.497222222222222,-0.35
8.5,-0.35
8.502777777777778,-0.345
8.505555555555556,-0.355
8.508333333333333,-0.38
8.511111111111111,-0.375
8.51388888888889,-0.37
8.516666666666667,-0.365
8.519444444444444,-0.37
8.522222222222222,-0.385
8.525,-0.405
8.527777777777779,-0.4
8.530555555555555,-0.395
8.533333333333333,-0.37
8.536111111111111,-0.37
8.53888888888889,-0.39
8.541666666666666,-0.41
8.544444444444444,-0.4
8.547222222222222,-0.405
8.55,-0.385
8.552777777777777,-0.365
8.555555555555555,-0.375
8.558333333333334,-0.395
8.561111111111112,-0.405
8.563888888888888,-0.4
8.566666666666666,-0.38
8.569444444444445,-0.365
8.572222222222223,-0.365
8.575,-0.385
8.577777777777778,-0.395
8.580555555555556,-0.4
8.583333333333334,-0.385
8.58611111111111,-0.375
8.588888888888889,-0.39
8.591666666666667,-0.38
8.594444444444445,-0.355
8.597222222222221,-0.34
8.6,-0.36
8.602777777777778,-0.38
8.605555555555556,-0.39
8.608333333333333,-0.38
8.61111111111111,-0.365
8.613888888888889,-0.365
8.616666666666667,-0.355
8.619444444444444,-0.355
8.622222222222222,-0.37
8.625,-0.375
8.627777777777778,-0.385
8.630555555555556,-0.375
8.633333333333333,-0.375
8.636111111111111,-0.375
8.63888888888889,-0.345
8.641666666666667,-0.345
8.644444444444444,-0.35
8.647222222222222,-0.35
8.65,-0.35
8.652777777777779,-0.355
8.655555555555555,-0.345
8.658333333333333,-0.355
8.661111111111111,-0.35
8.66388888888889,-0.355
8.666666666666666,-0.355
8.669444444444444,-0.37
8.672222222222222,-0.36
8.675,-0.365
8.677777777777777,-0.36
8.680555555555555,-0.35
8.683333333333334,-0.345
8.686111111111112,-0.36
8.688888888888888,-0.355
8.691666666666666,-0.375
8.694444444444445,-0.36
8.697222222222223,-0.355
8.7,-0.36
8.702777777777778,-0.365
8.705555555555556,-0.36
8.708333333333334,-0.365
8.71111111111111,-0.36
8.713888888888889,-0.35
8.716666666666667,-0.34
8.719444444444445,-0.335
8.722222222222221,-0.335
8.725,-0.35
8.727777777777778,-0.33
8.730555555555556,-0.31
8.733333333333333,-0.32
8.73611111111111,-0.31
8.738888888888889,-0.305
8.741666666666667,-0.32
8.744444444444444,-0.31
8.747222222222222,-0.285
8.75,-0.275
8.752777777777778,-0.265
8.755555555555556,-0.22
8.758333333333333,-0.19
8.761111111111111,-0.17
8.76388888888889,-0.185
8.766666666666667,-0.175
8.769444444444444,-0.155
8.772222222222222,-0.15
8.775,-0.155
8.777777777777779,-0.155
8.780555555555555,-0.145
8.783333333333333,-0.12
8.786111111111111,-0.1
8.78888888888889,-0.11
8.791666666666666,-0.14
8.794444444444444,-0.15
8.797222222222222,-0.185
8.8,-0.21
8.802777777777777,-0.245
8.805555555555555,-0.285
8.808333333333334,-0.325
8.811111111111112,-0.37
8.813888888888888,-0.395
8.816666666666666,-0.4
8.819444444444445,-0.42
8.822222222222223,-0.41
8.825,-0.415
8.827777777777778,-0.425
8.830555555555556,-0.405
8.833333333333334,-0.405
8.83611111111111,-0.405
8.838888888888889,-0.415
8.841666666666667,-0.425
8.844444444444445,-0.44
8.847222222222221,-0.44
8.85,-0.41
8.852777777777778,-0.395
8.855555555555556,-0.405
8.858333333333333,-0.43
8.86111111111111,-0.43
8.863888888888889,-0.425
8.866666666666667,-0.405
8.869444444444444,-0.42
8.872222222222222,-0.41
8.875,-0.405
8.877777777777778,-0.4
8.880555555555556,-0.4
8.883333333333333,-0.4
8.886111111111111,-0.42
8.88888888888889,-0.43
8.891666666666667,-0.44
8.894444444444444,-0.43
8.897222222222222,-0.42
8.9,-0.425
8.902777777777779,-0.41
8.905555555555555,-0.4
8.908333333333333,-0.42
8.911111111111111,-0.415
8.91388888888889,-0.415
8.916666666666666,-0.41
8.919444444444444,-0.425
8.922222222222222,-0.445
8.925,-0.475
8.927777777777777,-0.46
8.930555555555555,-0.42
8.933333333333334,-0.38
8.936111111111112,-0.39
8.938888888888888,-0.41
8.941666666666666,-0.405
8.944444444444445,-0.435
8.947222222222223,-0.505
8.95,-0.605
8.952777777777778,-0.65
8.955555555555556,-0.665
8.958333333333334,-0.665
8.96111111111111,-0.68
8.963888888888889,-0.69
8.966666666666667,-0.695
8.969444444444445,-0.74
8.972222222222221,-0.795
8.975,-0.845
8.977777777777778,-0.885
8.980555555555556,-0.9
8.983333333333333,-0.915
8.98611111111111,-0.965
8.988888888888889,-1.02
8.991666666666667,-1.07
8.994444444444444,-1.065
8.997222222222222,-1.045
9.0,-1.005
9.002777777777778,-0.955
9.005555555555556,-0.925
9.008333333333333,-0.915
9.011111111111111,-0.875
9.01388888888889,-0.79
9.016666666666667,-0.695
9.019444444444444,-0.63
9.022222222222222,-0.6
9.025,-0.575
9.027777777777779,-0.515
9.030555555555555,-0.44
9.033333333333333,-0.395
9.036111111111111,-0.38
9.03888888888889,-0.385
9.041666666666666,-0.385
9.044444444444444,-0.375
9.047222222222222,-0.36
9.05,-0.34
9.052777777777777,-0.33
9.055555555555555,-0.34
9.058333333333334,-0.35
9.061111111111112,-0.35
9.063888888888888,-0.33
9.066666666666666,-0.325
9.069444444444445,-0.33
9.072222222222223,-0.335
9.075,-0.335
9.077777777777778,-0.325
9.080555555555556,-0.305
9.083333333333334,-0.295
9.08611111111111,-0.295
9.088888888888889,-0.305
9.091666666666667,-0.32
9.094444444444445,-0.32
9.097222222222221,-0.33
9.1,-0.31
9.102777777777778,-0.305
9.105555555555556,-0.295
9.108333333333333,-0.31
9.11111111111111,-0.3
9.113888888888889,-0.3
9.116666666666667,-0.29
9.119444444444444,-0.28
9.122222222222222,-0.285
9.125,-0.29
9.127777777777778,-0.28
9.130555555555556,-0.265
9.133333333333333,-0.25
9.136111111111111,-0.26
9.13888888888889,-0.27
9.141666666666667,-0.28
9.144444444444444,-0.26
9.147222222222222,-0.255
9.15,-0.27
9.152777777777779,-0.265
9.155555555555555,-0.255
9.158333333333333,-0.245
9.161111111111111,-0.235
9.16388888888889,-0.24
9.166666666666666,-0.23
9.169444444444444,-0.21
9.172222222222222,-0.21
9.175,-0.22
9.177777777777777,-0.225
9.180555555555555,-0.215
9.183333333333334,-0.205
9.186111111111112,-0.205
9.188888888888888,-0.205
9.191666666666666,-0.21
9.194444444444445,-0.2
9.197222222222223,-0.21
9.2,-0.19
9.202777777777778,-0.19
9.205555555555556,-0.19
9.208333333333334,-0.2
9.21111111111111,-0.21
9.213888888888889,-0.215
9.216666666666667,-0.175
9.219444444444445,-0.155
9.222222222222221,-0.165
9.225,-0.185
9.227777777777778,-0.18
9.230555555555556,-0.165
9.233333333333333,-0.15
9.23611111111111,-0.15
9.238888888888889,-0.165
9.241666666666667,-0.18
9.244444444444444,-0.19
9.247222222222222,-0.18
9.25,-0.185
9.252777777777778,-0.21
9.255555555555556,-0.22
9.258333333333333,-0.235
9.261111111111111,-0.235
9.26388888888889,-0.23
9.266666666666667,-0.225
9.269444444444444,-0.24
9.272222222222222,-0.255
9.275,-0.265
9.277777777777779,-0.275
9.280555555555555,-0.265
9.283333333333333,-0.27
9.286111111111111,-0.285
9.28888888888889,-0.295
9.291666666666666,-0.31
9.294444444444444,-0.305
9.297222222222222,-0.3
9.3,-0.305
9.302777777777777,-0.305
9.305555555555555,-0.325
9.308333333333334,-0.365
9.311111111111112,-0.345
9.313888888888888,-0.33
9.316666666666666,-0.315
9.319444444444445,-0.335
9.322222222222223,-0.32
9.325,-0.35
9.327777777777778,-0.335
9.330555555555556,-0.34
9.333333333333334,-0.33
9.33611111111111,-0.34
9.338888888888889,-0.35
9.341666666666667,-0.355
9.344444444444445,-0.375
9.347222222222221,-0.36
9.35,-0.335
9.352777777777778,-0.335
9.355555555555556,-0.34
9.358333333333333,-0.36
9.36111111111111,-0.355
9.363888888888889,-0.36
9.366666666666667,-0.345
9.369444444444444,-0.35
9.372222222222222,-0.35
9.375,-0.365
9.377777777777778,-0.355
9.380555555555556,-0.36
9.383333333333333,-0.345
9.386111111111111,-0.355
9.38888888888889,-0.355
9.391666666666667,-0.365
9.394444444444444,-0.375
9.397222222222222,-0.365
9.4,-0.35
9.402777777777779,-0.36
9.405555555555555,-0.345
9.408333333333333,-0.37
9.411111111111111,-0.365
9.41388888888889,-0.35
9.416666666666666,-0.34
9.419444444444444,-0.35
9.422222222222222,-0.37
9.425,-0.385
9.427777777777777,-0.39
9.430555555555555,-0.375
9.433333333333334,-0.365
9.436111111111112,-0.375
9.438888888888888,-0.395
9.441666666666666,-0.405
9.444444444444445,-0.41
9.447222222222223,-0.405
9.45,-0.4
9.452777777777778,-0.4
9.455555555555556,-0.405
9.458333333333334,-0.425
9.46111111111111,-0.41
9.463888888888889,-0.405
9.466666666666667,-0.385
9.469444444444445,-0.395
9.472222222222221,-0.405
9.475,-0.41
9.477777777777778,-0.42
9.480555555555556,-0.41
9.483333333333333,-0.41
9.48611111111111,-0.405
9.488888888888889,-0.4
9.491666666666667,-0.41
9.494444444444444,-0.42
9.497222222222222,-0.415
9.5,-0.415
9.502777777777778,-0.43
9.505555555555556,-0.425
9.508333333333333,-0.43
9.511111111111111,-0.435
9.51388888888889,-0.425
9.516666666666667,-0.415
9.519444444444444,-0.41
9.522222222222222,-0.395
9.525,-0.41
9.527777777777779,-0.43
9.530555555555555,-0.45
9.533333333333333,-0.42
9.536111111111111,-0.425
9.53888888888889,-0.42
9.541666666666666,-0.435
9.544444444444444,-0.42
9.547222222222222,-0.425
9.55,-0.42
9.552777777777777,-0.43
9.555555555555555,-0.425
9.558333333333334,-0.425
9.561111111111112,-0.4
9.563888888888888,-0.395
9.566666666666666,-0.405
9.569444444444445,-0.41
9.572222222222223,-0.4
9.575,-0.395
9.577777777777778,-0.38
9.580555555555556,-0.37
9.583333333333334,-0.375
9.58611111111111,-0.385
9.588888888888889,-0.405
9.591666666666667,-0.41
9.594444444444445,-0.41
9.597222222222221,-0.405
9.6,-0.39
9.602777777777778,-0.395
9.605555555555556,-0.41
9.608333333333333,-0.42
9.61111111111111,-0.39
9.613888888888889,-0.385
9.616666666666667,-0.38
9.619444444444444,-0.375
9.622222222222222,-0.38
9.625,-0.395
9.627777777777778,-0.39
9.630555555555556,-0.385
9.633333333333333,-0.39
9.636111111111111,-0.4
9.63888888888889,-0.415
9.641666666666667,-0.4
9.644444444444444,-0.41
9.647222222222222,-0.395
9.65,-0.4
9.652777777777779,-0.395
9.655555555555555,-0.405
9.658333333333333,-0.395
9.661111111111111,-0.37
9.66388888888889,-0.365
9.666666666666666,-0.36
9.669444444444444,-0.37
9.672222222222222,-0.385
9.675,-0.395
9.677777777777777,-0.39
9.680555555555555,-0.375
9.683333333333334,-0.365
9.686111111111112,-0.375
9.688888888888888,-0.395
9.691666666666666,-0.39
9.694444444444445,-0.385
9.697222222222223,-0.375
9.7,-0.365
9.702777777777778,-0.36
9.705555555555556,-0.37
9.708333333333334,-0.38
9.71111111111111,-0.36
9.713888888888889,-0.32
9.716666666666667,-0.29
9.719444444444445,-0.285
9.722222222222221,-0.31
9.725,-0.31
9.727777777777778,-0.285
9.730555555555556,-0.26
9.733333333333333,-0.24
9.73611111111111,-0.22
9.738888888888889,-0.21
9.741666666666667,-0.205
9.744444444444444,-0.21
9.747222222222222,-0.185
9.75,-0.15
9.752777777777778,-0.135
9.755555555555556,-0.14
9.758333333333333,-0.16
9.761111111111111,-0.17
9.76388888888889,-0.145
9.766666666666667,-0.13
9.769444444444444,-0.125
9.772222222222222,-0.12
9.775,-0.13
9.777777777777779,-0.14
9.780555555555555,-0.18
9.783333333333333,-0.23
9.786111111111111,-0.27
9.78888888888889,-0.31
9.791666666666666,-0.355
9.794444444444444,-0.41
9.797222222222222,-0.425
9.8,-0.42
9.802777777777777,-0.41
9.805555555555555,-0.41
9.808333333333334,-0.41
9.811111111111112,-0.405
9.813888888888888,-0.395
9.816666666666666,-0.4
9.819444444444445,-0.4
9.822222222222223,-0.42
9.825,-0.415
9.827777777777778,-0.415
9.830555555555556,-0.42
9.833333333333334,-0.43
9.83611111111111,-0.44
9.838888888888889,-0.43
9.841666666666667,-0.42
9.844444444444445,-0.415
9.847222222222221,-0.4
9.85,-0.405
9.852777777777778,-0.41
9.855555555555556,-0.415
9.858333333333333,-0.415
9.86111111111111,-0.41
9.863888888888889,-0.4
9.866666666666667,-0.395
9.869444444444444,-0.405
9.872222222222222,-0.41
9.875,-0.42
9.877777777777778,-0.415
9.880555555555556,-0.41
9.883333333333333,-0.41
9.886111111111111,-0.4
9.88888888888889,-0.405
9.891666666666667,-0.425
9.894444444444444,-0.405
9.897222222222222,-0.39
9.9,-0.385
9.902777777777779,-0.39
9.905555555555555,-0.415
9.908333333333333,-0.435
9.911111111111111,-0.43
9.91388888888889,-0.385
9.916666666666666,-0.36
9.919444444444444,-0.365
9.922222222222222,-0.375
9.925,-0.385
9.927777777777777,-0.42
9.930555555555555,-0.505
9.933333333333334,-0.57
9.936111111111112,-0.62
9.938888888888888,-0.62
9.941666666666666,-0.635
9.944444444444445,-0.635
9.947222222222223,-0.645
9.95,-0.68
9.952777777777778,-0.725
9.955555555555556,-0.765
9.958333333333334,-0.785
9.96111111111111,-0.82
9.963888888888889,-0.825
9.966666666666667,-0.86
9.969444444444445,-0.895
9.972222222222221,-0.93
9.975,-0.96
9.977777777777778,-0.98
9.980555555555556,-0.985
9.983333333333333,-0.985
9.98611111111111,-0.94
9.988888888888889,-0.895
9.991666666666667,-0.88
9.994444444444444,-0.85
9.997222222222222,-0.78
10.0,-0.69
10.002777777777778,-0.625
10.005555555555556,-0.6
10.008333333333333,-0.575
10.011111111111111,-0.54
10.01388888888889,-0.485
10.016666666666667,-0.435
10.019444444444444,-0.37
10.022222222222222,-0.335
10.025,-0.335
10.027777777777779,-0.32
10.030555555555555,-0.305
10.033333333333333,-0.305
10.036111111111111,-0.305
10.03888888888889,-0.32
10.041666666666666,-0.33
10.044444444444444,-0.34
10.047222222222222,-0.315
10.05,-0.29
10.052777777777777,-0.275
10.055555555555555,-0.28
10.058333333333334,-0.295
10.061111111111112,-0.295
10.063888888888888,-0.285
10.066666666666666,-0.27
10.069444444444445,-0.265
10.072222222222223,-0.26
10.075,-0.275
10.077777777777778,-0.265
10.080555555555556,-0.27
10.083333333333334,-0.275
10.08611111111111,-0.275
10.088888888888889,-0.27
10.091666666666667,-0.27
10.094444444444445,-0.26
10.097222222222221,-0.265
10.1,-0.255
10.102777777777778,-0.25
10.105555555555556,-0.265
10.108333333333333,-0.27
10.11111111111111,-0.26
10.113888888888889,-0.245
10.116666666666667,-0.255
10.119444444444444,-0.26
10.122222222222222,-0.25
10.125,-0.25
10.127777777777778,-0.225
10.130555555555556,-0.215
10.133333333333333,-0.215
10.136111111111111,-0.22
10.13888888888889,-0.225
10.141666666666667,-0.22
10.144444444444444,-0.195
10.147222222222222,-0.21
10.15,-0.21
10.152777777777779,-0.21
10.155555555555555,-0.205
10.158333333333333,-0.21
10.161111111111111,-0.205
10.16388888888889,-0.185
10.166666666666666,-0.18
10.169444444444444,-0.17
10.172222222222222,-0.175
10.175,-0.18
10.177777777777777,-0.175
10.180555555555555,-0.16
10.183333333333334,-0.155
10.186111111111112,-0.155
10.188888888888888,-0.16
10.191666666666666,-0.155
10.194444444444445,-0.155
10.197222222222223,-0.15
10.2,-0.145
10.202777777777778,-0.145
10.205555555555556,-0.155
10.208333333333334,-0.165
10.21111111111111,-0.17
10.213888888888889,-0.14
10.216666666666667,-0.13
10.219444444444445,-0.135
10.222222222222221,-0.15
10.225,-0.165
10.227777777777778,-0.155
10.230555555555556,-0.16
10.233333333333333,-0.17
10.23611111111111,-0.175
10.238888888888889,-0.185
10.241666666666667,-0.2
10.244444444444444,-0.19
10.247222222222222,-0.2
10.25,-0.2
10.252777777777778,-0.205
10.255555555555556,-0.21
10.258333333333333,-0.225
10.261111111111111,-0.225
10.26388888888889,-0.225
10.266666666666667,-0.215
10.269444444444444,-0.23
10.272222222222222,-0.235
10.275,-0.25
10.277777777777779,-0.25
10.280555555555555,-0.245
10.283333333333333,-0.245
10.286111111111111,-0.255
10.28888888888889,-0.265
10.291666666666666,-0.28
10.294444444444444,-0.27
10.297222222222222,-0.265
10.3,-0.25
10.302777777777777,-0.25
10.305555555555555,-0.265
10.308333333333334,-0.28
10.311111111111112,-0.275
10.313888888888888,-0.265
10.316666666666666,-0.26
10.319444444444445,-0.275
10.322222222222223,-0.285
10.325,-0.29
10.327777777777778,-0.28
10.330555555555556,-0.26
10.333333333333334,-0.255
10.33611111111111,-0.265
10.338888888888889,-0.265
10.341666666666667,-0.27
10.344444444444445,-0.28
10.347222222222221,-0.27
10.35,-0.255
10.352777777777778,-0.265
10.355555555555556,-0.28
10.358333333333333,-0.285
10.36111111111111,-0.29
10.363888888888889,-0.285
10.366666666666667,-0.275
10.369444444444444,-0.275
10.372222222222222,-0.275
10.375,-0.28
10.377777777777778,-0.27
10.380555555555556,-0.27
10.383333333333333,-0.27
10.386111111111111,-0.275
10.38888888888889,-0.3
10.391666666666667,-0.29
10.394444444444444,-0.295
10.397222222222222,-0.28
10.4,-0.28
10.402777777777779,-0.3
10.405555555555555,-0.32
10.408333333333333,-0.32
10.411111111111111,-0.31
10.41388888888889,-0.295
10.416666666666666,-0.3
10.419444444444444,-0.31
10.422222222222222,-0.305
10.425,-0.32
10.427777777777777,-0.32
10.430555555555555,-0.33
10.433333333333334,-0.325
10.436111111111112,-0.325
10.438888888888888,-0.32
10.441666666666666,-0.345
10.444444444444445,-0.325
10.447222222222223,-0.315
10.45,-0.31
10.452777777777778,-0.315
10.455555555555556,-0.34
10.458333333333334,-0.335
10.46111111111111,-0.335
10.463888888888889,-0.325
10.466666666666667,-0.325
10.469444444444445,-0.34
10.472222222222221,-0.34
10.475,-0.35
10.477777777777778,-0.35
10.480555555555556,-0.33
10.483333333333333,-0.32
10.48611111111111,-0.305
10.488888888888889,-0.33
10.491666666666667,-0.34
10.494444444444444,-0.32
10.497222222222222,-0.305
10.5,-0.3
10.502777777777778,-0.31
10.505555555555556,-0.325
10.508333333333333,-0.325
10.511111111111111,-0.33
10.51388888888889,-0.31
10.516666666666667,-0.295
10.519444444444444,-0.305
10.522222222222222,-0.32
10.525,-0.345
10.527777777777779,-0.31
10.530555555555555,-0.315
10.533333333333333,-0.315
10.536111111111111,-0.31
10.53888888888889,-0.305
10.541666666666666,-0.315
10.544444444444444,-0.31
10.547222222222222,-0.3
10.55,-0.295
10.552777777777777,-0.305
10.555555555555555,-0.3
10.558333333333334,-0.32
10.561111111111112,-0.315
10.563888888888888,-0.31
10.566666666666666,-0.295
10.569444444444445,-0.3
10.572222222222223,-0.32
10.575,-0.32
10.577777777777778,-0.325
10.580555555555556,-0.305
10.583333333333334,-0.29
10.58611111111111,-0.28
10.588888888888889,-0.295
10.591666666666667,-0.31
10.594444444444445,-0.305
10.597222222222221,-0.285
10.6,-0.28
10.602777777777778,-0.28
10.605555555555556,-0.295
10.608333333333333,-0.31
10.61111111111111,-0.285
10.613888888888889,-0.285
10.616666666666667,-0.265
10.619444444444444,-0.275
10.622222222222222,-0.28
10.625,-0.285
10.627777777777778,-0.285
10.630555555555556,-0.27
10.633333333333333,-0.26
10.636111111111111,-0.265
10.63888888888889,-0.26
10.641666666666667,-0.255
10.644444444444444,-0.255
10.647222222222222,-0.215
10.65,-0.21
10.652777777777779,-0.215
10.655555555555555,-0.22
10.658333333333333,-0.22
10.661111111111111,-0.205
10.66388888888889,-0.19
10.666666666666666,-0.17
10.669444444444444,-0.14
10.672222222222222,-0.13
10.675,-0.12
10.677777777777777,-0.1
10.680555555555555,-0.08
10.683333333333334,-0.065
10.686111111111112,-0.06
10.688888888888888,-0.06
10.691666666666666,-0.07
10.694444444444445,-0.06
10.697222222222223,-0.035
10.7,-0.01
10.702777777777778,-0.035
10.705555555555556,-0.035
10.708333333333334,-0.065
10.71111111111111,-0.11
10.713888888888889,-0.14
10.716666666666667,-0.18
10.719444444444445,-0.2
10.722222222222221,-0.255
10.725,-0.3
10.727777777777778,-0.315
10.730555555555556,-0.315
10.733333333333333,-0.3
10.73611111111111,-0.305
10.738888888888889,-0.315
10.741666666666667,-0.31
10.744444444444444,-0.305
10.747222222222222,-0.29
10.75,-0.3
10.752777777777778,-0.315
10.755555555555556,-0.32
10.758333333333333,-0.32
10.761111111111111,-0.32
10.76388888888889,-0.305
10.766666666666667,-0.315
10.769444444444444,-0.32
10.772222222222222,-0.32
10.775,-0.315
10.777777777777779,-0.305
10.780555555555555,-0.29
10.783333333333333,-0.28
10.786111111111111,-0.3
10.78888888888889,-0.32
10.791666666666666,-0.31
10.794444444444444,-0.295
10.797222222222222,-0.295
10.8,-0.29
10.802777777777777,-0.3
10.805555555555555,-0.31
10.808333333333334,-0.32
10.811111111111112,-0.305
10.813888888888888,-0.295
10.816666666666666,-0.295
10.819444444444445,-0.31
10.822222222222223,-0.31
10.825,-0.32
10.827777777777778,-0.295
10.830555555555556,-0.285
10.833333333333334,-0.295
10.83611111111111,-0.32
10.838888888888889,-0.33
10.841666666666667,-0.315
10.844444444444445,-0.28
10.847222222222221,-0.27
10.85,-0.255
10.852777777777778,-0.27
10.855555555555556,-0.35
10.858333333333333,-0.43
10.86111111111111,-0.495
10.863888888888889,-0.51
10.866666666666667,-0.515
10.869444444444444,-0.515
10.872222222222222,-0.53
10.875,-0.58
10.877777777777778,-0.62
10.880555555555556,-0.655
10.883333333333333,-0.675
10.886111111111111,-0.72
10.88888888888889,-0.765
10.891666666666667,-0.83
10.894444444444444,-0.85
10.897222222222222,-0.88
10.9,-0.875
10.902777777777779,-0.885
10.905555555555555,-0.865
10.908333333333333,-0.84
10.911111111111111,-0.785
10.91388888888889,-0.76
10.916666666666666,-0.705
10.919444444444444,-0.63
10.922222222222222,-0.535
10.925,-0.5
10.927777777777777,-0.445
10.930555555555555,-0.4
10.933333333333334,-0.35
10.936111111111112,-0.3
10.938888888888888,-0.255
10.941666666666666,-0.255
10.944444444444445,-0.225
10.947222222222223,-0.215
10.95,-0.215
10.952777777777778,-0.205
10.955555555555556,-0.22
10.958333333333334,-0.23
10.96111111111111,-0.21
10.963888888888889,-0.2
10.966666666666667,-0.18
10.969444444444445,-0.18
10.972222222222221,-0.2
10.975,-0.205
10.977777777777778,-0.195
10.980555555555556,-0.19
10.983333333333333,-0.175
10.98611111111111,-0.175
10.988888888888889,-0.17
10.991666666666667,-0.18
10.994444444444444,-0.17
10.997222222222222,-0.16
11.0,-0.17
11.002777777777778,-0.165
11.005555555555556,-0.165
11.008333333333333,-0.18
11.011111111111111,-0.18
11.01388888888889,-0.185
11.016666666666667,-0.16
11.019444444444444,-0.16
11.022222222222222,-0.155
11.025,-0.17
11.027777777777779,-0.165
11.030555555555555,-0.16
11.033333333333333,-0.14
11.036111111111111,-0.14
11.03888888888889,-0.14
11.041666666666666,-0.145
11.044444444444444,-0.125
11.047222222222222,-0.11
11.05,-0.115
11.052777777777777,-0.105
11.055555555555555,-0.125
11.058333333333334,-0.125
11.061111111111112,-0.115
11.063888888888888,-0.095
11.066666666666666,-0.08
11.069444444444445,-0.085
11.072222222222223,-0.095
11.075,-0.085
11.077777777777778,-0.075
11.080555555555556,-0.055
11.083333333333334,-0.05
11.08611111111111,-0.05
11.088888888888889,-0.07
11.091666666666667,-0.075
11.094444444444445,-0.045
11.097222222222221,-0.04
11.1,-0.045
11.102777777777778,-0.05
11.105555555555556,-0.045
11.108333333333333,-0.035
11.11111111111111,-0.03
11.113888888888889,-0.01
11.116666666666667,-0.01
11.119444444444444,-0.015
11.122222222222222,-0.03
11.125,-0.055
11.127777777777778,-0.055
11.130555555555556,-0.04
11.133333333333333,-0.035
11.136111111111111,-0.05
11.13888888888889,-0.06
11.141666666666667,-0.085
11.144444444444444,-0.085
11.147222222222222,-0.065
11.15,-0.075
11.152777777777779,-0.08
11.155555555555555,-0.095
11.158333333333333,-0.115
11.161111111111111,-0.13
11.16388888888889,-0.13
11.166666666666666,-0.13
11.169444444444444,-0.15
11.172222222222222,-0.155
11.175,-0.195
11.177777777777777,-0.17
11.180555555555555,-0.165
11.183333333333334,-0.155
11.186111111111112,-0.16
11.188888888888888,-0.175
11.191666666666666,-0.18
11.194444444444445,-0.18
11.197222222222223,-0.185
11.2,-0.18
11.202777777777778,-0.19
11.205555555555556,-0.19
11.208333333333334,-0.17
11.21111111111111,-0.19
11.213888888888889,-0.19
11.216666666666667,-0.19
11.219444444444445,-0.19
11.222222222222221,-0.205
11.225,-0.205
11.227777777777778,-0.205
11.230555555555556,-0.195
11.233333333333333,-0.185
11.23611111111111,-0.18
11.238888888888889,-0.19
11.241666666666667,-0.21
11.244444444444444,-0.215
11.247222222222222,-0.2
11.25,-0.195
11.252777777777778,-0.21
11.255555555555556,-0.21
11.258333333333333,-0.24
11.261111111111111,-0.22
11.26388888888889,-0.21
11.266666666666667,-0.215
11.269444444444444,-0.21
11.272222222222222,-0.225
11.275,-0.25
11.277777777777779,-0.23
11.280555555555555,-0.225
11.283333333333333,-0.22
11.286111111111111,-0.225
11.28888888888889,-0.23
11.291666666666666,-0.25
11.294444444444444,-0.245
11.297222222222222,-0.24
11.3,-0.24
11.302777777777777,-0.245
11.305555555555555,-0.25
11.308333333333334,-0.25
11.311111111111112,-0.235
11.313888888888888,-0.22
11.316666666666666,-0.245
11.319444444444445,-0.27
11.322222222222223,-0.27
11.325,-0.265
11.327777777777778,-0.255
11.330555555555556,-0.245
11.333333333333334,-0.25
11.33611111111111,-0.27
11.338888888888889,-0.305
11.341666666666667,-0.355
11.344444444444445,-0.39
11.347222222222221,-0.415
11.35,-0.425
11.352777777777778,-0.45
11.355555555555556,-0.46
11.358333333333333,-0.455
11.36111111111111,-0.425
11.363888888888889,-0.39
11.366666666666667,-0.355
11.369444444444444,-0.29
11.372222222222222,-0.225
11.375,-0.185
11.377777777777778,-0.125
11.380555555555556,-0.065
11.383333333333333,-0.01
11.386111111111111,0.035
11.38888888888889,0.065
11.391666666666667,0.13
11.394444444444444,0.22
11.397222222222222,0.255
11.4,0.19
11.402777777777779,0.13
11.405555555555555,0.145
11.408333333333333,0.21
11.411111111111111,0.245
11.41388888888889,0.205
11.416666666666666,0.12
11.419444444444444,0.035
11.422222222222222,-0.03
11.425,-0.145
11.427777777777777,-0.31
11.430555555555555,-0.48
11.433333333333334,-0.58
11.436111111111112,-0.59
11.438888888888888,-0.525
11.441666666666666,-0.42
11.444444444444445,-0.325
11.447222222222223,-0.285
11.45,-0.29
11.452777777777778,-0.295
11.455555555555556,-0.315
11.458333333333334,-0.335
11.46111111111111,-0.345
11.463888888888889,-0.325
11.466666666666667,-0.32
11.469444444444445,-0.315
11.472222222222221,-0.33
11.475,-0.345
11.477777777777778,-0.325
11.480555555555556,-0.33
11.483333333333333,-0.33
11.48611111111111,-0.345
11.488888888888889,-0.335
11.491666666666667,-0.345
11.494444444444444,-0.34
11.497222222222222,-0.33
11.5,-0.325
11.502777777777778,-0.325
11.505555555555556,-0.345
11.508333333333333,-0.36
11.511111111111111,-0.35
11.51388888888889,-0.34
11.516666666666667,-0.34
11.519444444444444,-0.345
11.522222222222222,-0.365
11.525,-0.365
11.527777777777779,-0.38
11.530555555555555,-0.365
11.533333333333333,-0.355
11.536111111111111,-0.36
11.53888888888889,-0.37
11.541666666666666,-0.365
11.544444444444444,-0.37
11.547222222222222,-0.345
11.55,-0.36
11.552777777777777,-0.36
11.555555555555555,-0.36
11.558333333333334,-0.35
11.561111111111112,-0.35
11.563888888888888,-0.335
11.566666666666666,-0.315
11.569444444444445,-0.3
11.572222222222223,-0.305
11.575,-0.315
11.577777777777778,-0.305
11.580555555555556,-0.285
11.583333333333334,-0.28
11.58611111111111,-0.275
11.588888888888889,-0.275
11.591666666666667,-0.24
11.594444444444445,-0.215
11.597222222222221,-0.185
11.6,-0.19
11.602777777777778,-0.185
11.605555555555556,-0.18
11.608333333333333,-0.17
11.61111111111111,-0.17
11.613888888888889,-0.175
11.616666666666667,-0.165
11.619444444444444,-0.16
11.622222222222222,-0.155
11.625,-0.135
11.627777777777778,-0.12
11.630555555555556,-0.12
11.633333333333333,-0.16
11.636111111111111,-0.21
11.63888888888889,-0.26
11.641666666666667,-0.3
11.644444444444444,-0.31
11.647222222222222,-0.345
11.65,-0.375
11.652777777777779,-0.42
11.655555555555555,-0.445
11.658333333333333,-0.455
11.661111111111111,-0.425
11.66388888888889,-0.42
11.666666666666666,-0.405
11.669444444444444,-0.415
11.672222222222222,-0.42
11.675,-0.42
11.677777777777777,-0.425
11.680555555555555,-0.41
11.683333333333334,-0.395
11.686111111111112,-0.395
11.688888888888888,-0.4
11.691666666666666,-0.405
11.694444444444445,-0.395
11.697222222222223,-0.385
11.7,-0.38
11.702777777777778,-0.38
11.705555555555556,-0.375
11.708333333333334,-0.365
11.71111111111111,-0.365
11.713888888888889,-0.34
11.716666666666667,-0.335
11.719444444444445,-0.335
11.722222222222221,-0.345
11.725,-0.35
11.727777777777778,-0.345
11.730555555555556,-0.335
11.733333333333333,-0.315
11.73611111111111,-0.325
11.738888888888889,-0.32
11.741666666666667,-0.315
11.744444444444444,-0.32
11.747222222222222,-0.325
11.75,-0.325
11.752777777777778,-0.31
11.755555555555556,-0.305
11.758333333333333,-0.32
11.761111111111111,-0.315
11.76388888888889,-0.315
11.766666666666667,-0.315
11.769444444444444,-0.315
11.772222222222222,-0.315
11.775,-0.33
11.777777777777779,-0.325
11.780555555555555,-0.325
11.783333333333333,-0.315
11.786111111111111,-0.32
11.78888888888889,-0.335
11.791666666666666,-0.335
11.794444444444444,-0.32
11.797222222222222,-0.305
11.8,-0.3
11.802777777777777,-0.295
11.805555555555555,-0.31
11.808333333333334,-0.32
11.811111111111112,-0.31
11.813888888888888,-0.305
11.816666666666666,-0.31
11.819444444444445,-0.31
11.822222222222223,-0.315
11.825,-0.315
11.827777777777778,-0.305
11.830555555555556,-0.285
11.833333333333334,-0.275
11.83611111111111,-0.28
11.838888888888889,-0.295
11.841666666666667,-0.295
11.844444444444445,-0.3
11.847222222222221,-0.28
11.85,-0.275
11.852777777777778,-0.28
11.855555555555556,-0.295
11.858333333333333,-0.29
11.86111111111111,-0.285
11.863888888888889,-0.28
11.866666666666667,-0.285
11.869444444444444,-0.265
11.872222222222222,-0.25
11.875,-0.27
11.877777777777778,-0.28
11.880555555555556,-0.265
11.883333333333333,-0.245
11.886111111111111,-0.265
11.88888888888889,-0.27
11.891666666666667,-0.265
11.894444444444444,-0.255
11.897222222222222,-0.235
11.9,-0.225
11.902777777777779,-0.245
11.905555555555555,-0.255
11.908333333333333,-0.26
11.911111111111111,-0.245
11.91388888888889,-0.24
11.916666666666666,-0.225
11.919444444444444,-0.24
11.922222222222222,-0.23
11.925,-0.23
11.927777777777777,-0.225
11.930555555555555,-0.23
11.933333333333334,-0.25
11.936111111111112,-0.265
11.938888888888888,-0.26
11.941666666666666,-0.255
11.944444444444445,-0.235
11.947222222222223,-0.215
11.95,-0.21
11.952777777777778,-0.225
11.955555555555556,-0.24
11.958333333333334,-0.26
11.96111111111111,-0.24
11.963888888888889,-0.24
11.966666666666667,-0.235
11.969444444444445,-0.23
11.972222222222221,-0.22
11.975,-0.22
11.977777777777778,-0.23
11.980555555555556,-0.235
11.983333333333333,-0.23
11.98611111111111,-0.23
11.988888888888889,-0.24
11.991666666666667,-0.25
11.994444444444444,-0.245
11.997222222222222,-0.23
12.0,-0.23
12.002777777777778,-0.23
12.005555555555556,-0.235
12.008333333333333,-0.255
12.011111111111111,-0.225
12.01388888888889,-0.23
12.016666666666667,-0.21
12.019444444444444,-0.205
12.022222222222222,-0.21
12.025,-0.22
12.027777777777779,-0.22
12.030555555555555,-0.195
12.033333333333333,-0.19
12.036111111111111,-0.2
12.03888888888889,-0.2
12.041666666666666,-0.205
12.044444444444444,-0.205
12.047222222222222,-0.205
12.05,-0.19
12.052777777777777,-0.195
12.055555555555555,-0.19
12.058333333333334,-0.2
12.061111111111112,-0.215
12.063888888888888,-0.21
12.066666666666666,-0.195
12.069444444444445,-0.195
12.072222222222223,-0.2
12.075,-0.205
12.077777777777778,-0.2
12.080555555555556,-0.19
12.083333333333334,-0.185
12.08611111111111,-0.19
12.088888888888889,-0.185
12.091666666666667,-0.195
12.094444444444445,-0.2
12.097222222222221,-0.205
12.1,-0.195
12.102777777777778,-0.19
12.105555555555556,-0.18
12.108333333333333,-0.205
12.11111111111111,-0.2
12.113888888888889,-0.2
12.116666666666667,-0.195
12.119444444444444,-0.2
12.122222222222222,-0.205
12.125,-0.22
12.127777777777778,-0.215
12.130555555555556,-0.195
12.133333333333333,-0.18
12.136111111111111,-0.155
12.13888888888889,-0.155
12.141666666666667,-0.175
12.144444444444444,-0.185
12.147222222222222,-0.18
12.15,-0.165
12.152777777777779,-0.18
12.155555555555555,-0.2
12.158333333333333,-0.2
12.161111111111111,-0.195
12.16388888888889,-0.19
12.166666666666666,-0.19
12.169444444444444,-0.185
12.172222222222222,-0.18
12.175,-0.19
12.177777777777777,-0.19
12.180555555555555,-0.195
12.183333333333334,-0.195
12.186111111111112,-0.195
12.188888888888888,-0.195
12.191666666666666,-0.195
12.194444444444445,-0.175
12.197222222222223,-0.17
12.2,-0.175
12.202777777777778,-0.19
12.205555555555556,-0.19
12.208333333333334,-0.195
12.21111111111111,-0.19
12.213888888888889,-0.19
12.216666666666667,-0.18
12.219444444444445,-0.185
12.222222222222221,-0.195
12.225,-0.195
12.227777777777778,-0.185
12.230555555555556,-0.18
12.233333333333333,-0.18
12.23611111111111,-0.17
12.238888888888889,-0.185
12.241666666666667,-0.185
12.244444444444444,-0.175
12.247222222222222,-0.17
12.25,-0.16
12.252777777777778,-0.185
12.255555555555556,-0.18
12.258333333333333,-0.21
12.261111111111111,-0.205
12.26388888888889,-0.18
12.266666666666667,-0.185
12.269444444444444,-0.18
12.272222222222222,-0.19
12.275,-0.185
12.277777777777779,-0.18
12.280555555555555,-0.17
12.283333333333333,-0.175
12.286111111111111,-0.175
12.28888888888889,-0.18
12.291666666666666,-0.18
12.294444444444444,-0.175
12.297222222222222,-0.18
12.3,-0.205
12.302777777777777,-0.18
12.305555555555555,-0.2
12.308333333333334,-0.195
12.311111111111112,-0.185
12.313888888888888,-0.18
12.316666666666666,-0.17
12.319444444444445,-0.17
12.322222222222223,-0.18
12.325,-0.18
12.327777777777778,-0.165
12.330555555555556,-0.16
12.333333333333334,-0.175
12.33611111111111,-0.19
12.338888888888889,-0.19
12.341666666666667,-0.19
12.344444444444445,-0.19
12.347222222222221,-0.175
12.35,-0.17
12.352777777777778,-0.175
12.355555555555556,-0.185
12.358333333333333,-0.2
12.36111111111111,-0.19
12.363888888888889,-0.17
12.366666666666667,-0.17
12.369444444444444,-0.16
12.372222222222222,-0.17
12.375,-0.195
12.377777777777778,-0.185
12.380555555555556,-0.175
12.383333333333333,-0.175
12.386111111111111,-0.17
12.38888888888889,-0.17
12.391666666666667,-0.195
12.394444444444444,-0.205
12.397222222222222,-0.19
12.4,-0.175
12.402777777777779,-0.19
12.405555555555555,-0.19
12.408333333333333,-0.19
12.411111111111111,-0.185
12.41388888888889,-0.185
12.416666666666666,-0.16
12.419444444444444,-0.175
12.422222222222222,-0.185
12.425,-0.185
12.427777777777777,-0.175
12.430555555555555,-0.17
12.433333333333334,-0.16
12.436111111111112,-0.165
12.438888888888888,-0.17
12.441666666666666,-0.18
12.444444444444445,-0.18
12.447222222222223,-0.185
12.45,-0.165
12.452777777777778,-0.175
12.455555555555556,-0.19
12.458333333333334,-0.18
12.46111111111111,-0.185
12.463888888888889,-0.17
12.466666666666667,-0.17
12.469444444444445,-0.17
12.472222222222221,-0.17
12.475,-0.175
12.477777777777778,-0.16
12.480555555555556,-0.165
12.483333333333333,-0.17
12.48611111111111,-0.185
12.488888888888889,-0.195
12.491666666666667,-0.185
12.494444444444444,-0.185
12.497222222222222,-0.175
12.5,-0.175
12.502777777777778,-0.165
12.505555555555556,-0.185
12.508333333333333,-0.175
12.511111111111111,-0.165
12.51388888888889,-0.17
12.516666666666667,-0.155
12.519444444444444,-0.175
12.522222222222222,-0.19
12.525,-0.195
12.527777777777779,-0.17
12.530555555555555,-0.14
12.533333333333333,-0.105
12.536111111111111,-0.115
12.53888888888889,-0.12
12.541666666666666,-0.11
12.544444444444444,-0.1
12.547222222222222,-0.085
12.55,-0.075
12.552777777777777,-0.065
12.555555555555555,-0.05
12.558333333333334,-0.04
12.561111111111112,-0.02
12.563888888888888,0.01
12.566666666666666,0.02
12.569444444444445,0.025
12.572222222222223,0.025
12.575,0.025
12.577777777777778,0.035
12.580555555555556,0.045
12.583333333333334,0.065
12.58611111111111,0.065
12.588888888888889,0.07
12.591666666666667,0.065
12.594444444444445,0.075
12.597222222222221,0.04
12.6,-0.005
12.602777777777778,-0.055
12.605555555555556,-0.115
12.608333333333333,-0.145
12.61111111111111,-0.18
12.613888888888889,-0.205
12.616666666666667,-0.215
12.619444444444444,-0.225
12.622222222222222,-0.23
12.625,-0.22
12.627777777777778,-0.215
12.630555555555556,-0.205
12.633333333333333,-0.205
12.636111111111111,-0.225
12.63888888888889,-0.225
12.641666666666667,-0.24
12.644444444444444,-0.23
12.647222222222222,-0.22
12.65,-0.205
12.652777777777779,-0.215
12.655555555555555,-0.235
12.658333333333333,-0.245
12.661111111111111,-0.24
12.66388888888889,-0.215
12.666666666666666,-0.22
12.669444444444444,-0.23
12.672222222222222,-0.245
12.675,-0.24
12.677777777777777,-0.23
12.680555555555555,-0.21
12.683333333333334,-0.215
12.686111111111112,-0.22
12.688888888888888,-0.225
12.691666666666666,-0.235
12.694444444444445,-0.225
12.697222222222223,-0.225
12.7,-0.205
12.702777777777778,-0.21
12.705555555555556,-0.215
12.708333333333334,-0.235
12.71111111111111,-0.24
12.713888888888889,-0.225
12.716666666666667,-0.2
12.719444444444445,-0.18
12.722222222222221,-0.175
12.725,-0.19
12.727777777777778,-0.175
12.730555555555556,-0.19
12.733333333333333,-0.265
12.73611111111111,-0.355
12.738888888888889,-0.41
12.741666666666667,-0.42
12.744444444444444,-0.42
12.747222222222222,-0.43
12.75,-0.445
12.752777777777778,-0.48
12.755555555555556,-0.54
12.758333333333333,-0.57
12.761111111111111,-0.59
12.76388888888889,-0.63
12.766666666666667,-0.66
12.769444444444444,-0.685
12.772222222222222,-0.71
12.775,-0.745
12.777777777777779,-0.755
12.780555555555555,-0.765
12.783333333333333,-0.78
12.786111111111111,-0.785
12.78888888888889,-0.76
12.791666666666666,-0.74
12.794444444444444,-0.725
12.797222222222222,-0.725
12.8,-0.685
12.802777777777777,-0.595
12.805555555555555,-0.495
12.808333333333334,-0.43
12.811111111111112,-0.385
12.813888888888888,-0.36
12.816666666666666,-0.35
12.819444444444445,-0.305
12.822222222222223,-0.265
12.825,-0.215
12.827777777777778,-0.19
12.830555555555556,-0.175
12.833333333333334,-0.155
12.83611111111111,-0.125
12.838888888888889,-0.145
12.841666666666667,-0.165
12.844444444444445,-0.165
12.847222222222221,-0.155
12.85,-0.14
12.852777777777778,-0.13
12.855555555555556,-0.125
12.858333333333333,-0.135
12.86111111111111,-0.135
12.863888888888889,-0.125
12.866666666666667,-0.125
12.869444444444444,-0.13
12.872222222222222,-0.125
12.875,-0.13
12.877777777777778,-0.125
12.880555555555556,-0.12
12.883333333333333,-0.12
12.886111111111111,-0.135
12.88888888888889,-0.13
12.891666666666667,-0.145
12.894444444444444,-0.135
12.897222222222222,-0.13
12.9,-0.13
12.902777777777779,-0.125
12.905555555555555,-0.13
12.908333333333333,-0.145
12.911111111111111,-0.14
12.91388888888889,-0.125
12.916666666666666,-0.115
12.919444444444444,-0.125
12.922222222222222,-0.145
12.925,-0.14
12.927777777777777,-0.13
12.930555555555555,-0.13
12.933333333333334,-0.13
12.936111111111112,-0.125
12.938888888888888,-0.125
12.941666666666666,-0.115
12.944444444444445,-0.1
12.947222222222223,-0.08
12.95,-0.07
12.952777777777778,-0.07
12.955555555555556,-0.075
12.958333333333334,-0.085
12.96111111111111,-0.095
12.963888888888889,-0.08
12.966666666666667,-0.06
12.969444444444445,-0.06
12.972222222222221,-0.07
12.975,-0.075
12.977777777777778,-0.08
12.980555555555556,-0.09
12.983333333333333,-0.085
12.98611111111111,-0.07
12.988888888888889,-0.055
12.991666666666667,-0.045
12.994444444444444,-0.05
12.997222222222222,-0.05
13.0,-0.045
13.002777777777778,-0.045
13.005555555555556,-0.04
13.008333333333333,-0.04
13.011111111111111,-0.03
13.01388888888889,-0.02
13.016666666666667,-0.02
13.019444444444444,-0.04
13.022222222222222,-0.045
13.025,-0.055
13.027777777777779,-0.04
13.030555555555555,-0.025
13.033333333333333,-0.02
13.036111111111111,-0.02
13.03888888888889,-0.04
13.041666666666666,-0.045
13.044444444444444,-0.06
13.047222222222222,-0.045
13.05,-0.04
13.052777777777777,-0.055
13.055555555555555,-0.05
13.058333333333334,-0.055
13.061111111111112,-0.045
13.063888888888888,-0.03
13.066666666666666,-0.045
13.069444444444445,-0.055
13.072222222222223,-0.06
13.075,-0.07
13.077777777777778,-0.055
13.080555555555556,-0.055
13.083333333333334,-0.055
13.08611111111111,-0.06
13.088888888888889,-0.07
13.091666666666667,-0.065
13.094444444444445,-0.07
13.097222222222221,-0.07
13.1,-0.075
13.102777777777778,-0.09
13.105555555555556,-0.095
13.108333333333333,-0.11
13.11111111111111,-0.105
13.113888888888889,-0.085
13.116666666666667,-0.09
13.119444444444444,-0.1
13.122222222222222,-0.115
13.125,-0.13
13.127777777777778,-0.11
13.130555555555556,-0.125
13.133333333333333,-0.1
13.136111111111111,-0.11
13.13888888888889,-0.115
13.141666666666667,-0.115
13.144444444444444,-0.115
13.147222222222222,-0.105
13.15,-0.11
13.152777777777779,-0.12
13.155555555555555,-0.125
13.158333333333333,-0.14
13.161111111111111,-0.13
13.16388888888889,-0.115
13.166666666666666,-0.115
13.169444444444444,-0.12
13.172222222222222,-0.13
13.175,-0.12
13.177777777777777,-0.125
13.180555555555555,-0.115
13.183333333333334,-0.125
13.186111111111112,-0.13
13.188888888888888,-0.145
13.191666666666666,-0.15
13.194444444444445,-0.145
13.197222222222223,-0.135
13.2,-0.12
13.202777777777778,-0.12
13.205555555555556,-0.13
13.208333333333334,-0.14
13.21111111111111,-0.14
13.213888888888889,-0.12
13.216666666666667,-0.11
13.219444444444445,-0.13
13.222222222222221,-0.14
13.225,-0.145
13.227777777777778,-0.13
13.230555555555556,-0.12
13.233333333333333,-0.13
13.23611111111111,-0.15
13.238888888888889,-0.15
13.241666666666667,-0.155
13.244444444444444,-0.135
13.247222222222222,-0.135
13.25,-0.145
13.252777777777778,-0.155
13.255555555555556,-0.165
13.258333333333333,-0.165
13.261111111111111,-0.18
13.26388888888889,-0.17
13.266666666666667,-0.175
13.269444444444444,-0.185
13.272222222222222,-0.19
13.275,-0.205
13.277777777777779,-0.21
13.280555555555555,-0.22
13.283333333333333,-0.22
13.286111111111111,-0.225
13.28888888888889,-0.225
13.291666666666666,-0.215
13.294444444444444,-0.21
13.297222222222222,-0.21
13.3,-0.225
13.302777777777777,-0.235
13.305555555555555,-0.24
13.308333333333334,-0.255
13.311111111111112,-0.235
13.313888888888888,-0.22
13.316666666666666,-0.22
13.319444444444445,-0.215
13.322222222222223,-0.235
13.325,-0.26
13.327777777777778,-0.255
13.330555555555556,-0.24
13.333333333333334,-0.245
13.33611111111111,-0.245
13.338888888888889,-0.255
13.341666666666667,-0.24
13.344444444444445,-0.21
13.347222222222221,-0.21
13.35,-0.21
13.352777777777778,-0.21
13.355555555555556,-0.22
13.358333333333333,-0.23
13.36111111111111,-0.225
13.363888888888889,-0.215
13.366666666666667,-0.195
13.369444444444444,-0.185
13.372222222222222,-0.18
13.375,-0.18
13.377777777777778,-0.175
13.380555555555556,-0.175
13.383333333333333,-0.185
13.386111111111111,-0.195
13.38888888888889,-0.2
13.391666666666667,-0.2
13.394444444444444,-0.2
13.397222222222222,-0.19
13.4,-0.2
13.402777777777779,-0.195
13.405555555555555,-0.185
13.408333333333333,-0.185
13.411111111111111,-0.19
13.41388888888889,-0.18
13.416666666666666,-0.18
13.419444444444444,-0.18
13.422222222222222,-0.18
13.425,-0.17
13.427777777777777,-0.16
13.430555555555555,-0.165
13.433333333333334,-0.18
13.436111111111112,-0.175
13.438888888888888,-0.18
13.441666666666666,-0.19
13.444444444444445,-0.175
13.447222222222223,-0.165
13.45,-0.15
13.452777777777778,-0.165
13.455555555555556,-0.18
13.458333333333334,-0.19
13.46111111111111,-0.175
13.463888888888889,-0.17
13.466666666666667,-0.165
13.469444444444445,-0.175
13.472222222222221,-0.175
13.475,-0.18
13.477777777777778,-0.17
13.480555555555556,-0.165
13.483333333333333,-0.175
13.48611111111111,-0.17
13.488888888888889,-0.175
13.491666666666667,-0.185
13.494444444444444,-0.185
13.497222222222222,-0.18
13.5,-0.17
13.502777777777778,-0.16
13.505555555555556,-0.145
13.508333333333333,-0.145
13.511111111111111,-0.14
13.51388888888889,-0.14
13.516666666666667,-0.145
13.519444444444444,-0.155
13.522222222222222,-0.16
13.525,-0.155
13.527777777777779,-0.14
13.530555555555555,-0.105
13.533333333333333,-0.125
13.536111111111111,-0.11
13.53888888888889,-0.105
13.541666666666666,-0.105
13.544444444444444,-0.085
13.547222222222222,-0.08
13.55,-0.07
13.552777777777777,-0.065
13.555555555555555,-0.055
13.558333333333334,-0.05
13.561111111111112,-0.035
13.563888888888888,-0.015
13.566666666666666,0.01
13.569444444444445,0.055
13.572222222222223,0.055
13.575,0.055
13.577777777777778,0.06
13.580555555555556,0.055
13.583333333333334,0.045
13.58611111111111,0.055
13.588888888888889,0.045
13.591666666666667,0.04
13.594444444444445,0.035
13.597222222222221,0.035
13.6,0.05
13.602777777777778,0.02
13.605555555555556,-0.025
13.608333333333333,-0.065
13.61111111111111,-0.1
13.613888888888889,-0.14
13.616666666666667,-0.175
13.619444444444444,-0.22
13.622222222222222,-0.245
13.625,-0.23
13.627777777777778,-0.205
13.630555555555556,-0.18
13.633333333333333,-0.18
13.636111111111111,-0.195
13.63888888888889,-0.205
13.641666666666667,-0.21
13.644444444444444,-0.205
13.647222222222222,-0.195
13.65,-0.19
13.652777777777779,-0.205
13.655555555555555,-0.215
13.658333333333333,-0.215
13.661111111111111,-0.19
13.66388888888889,-0.195
13.666666666666666,-0.2
13.669444444444444,-0.205
13.672222222222222,-0.22
13.675,-0.215
13.677777777777777,-0.215
13.680555555555555,-0.21
13.683333333333334,-0.2
13.686111111111112,-0.22
13.688888888888888,-0.22
13.691666666666666,-0.22
13.694444444444445,-0.21
13.697222222222223,-0.215
13.7,-0.215
13.702777777777778,-0.21
13.705555555555556,-0.2
13.708333333333334,-0.185
13.71111111111111,-0.195
13.713888888888889,-0.195
13.716666666666667,-0.205
13.719444444444445,-0.205
13.722222222222221,-0.215
13.725,-0.2
13.727777777777778,-0.21
13.730555555555556,-0.23
13.733333333333333,-0.25
13.73611111111111,-0.25
13.738888888888889,-0.225
13.741666666666667,-0.195
13.744444444444444,-0.165
13.747222222222222,-0.16
13.75,-0.175
13.752777777777778,-0.21
13.755555555555556,-0.29
13.758333333333333,-0.375
13.761111111111111,-0.405
13.76388888888889,-0.43
13.766666666666667,-0.425
13.769444444444444,-0.425
13.772222222222222,-0.44
13.775,-0.475
13.777777777777779,-0.51
13.780555555555555,-0.55
13.783333333333333,-0.57
13.786111111111111,-0.62
13.78888888888889,-0.64
13.791666666666666,-0.68
13.794444444444444,-0.685
13.797222222222222,-0.71
13.8,-0.75
13.802777777777777,-0.79
13.805555555555555,-0.825
13.808333333333334,-0.835
13.811111111111112,-0.805
13.813888888888888,-0.755
13.816666666666666,-0.725
13.819444444444445,-0.71
13.822222222222223,-0.685
13.825,-0.61
13.827777777777778,-0.52
13.830555555555556,-0.445
13.833333333333334,-0.395
13.83611111111111,-0.37
13.838888888888889,-0.335
13.841666666666667,-0.3
13.844444444444445,-0.245
13.847222222222221,-0.195
13.85,-0.175
13.852777777777778,-0.155
13.855555555555556,-0.14
13.858333333333333,-0.145
13.86111111111111,-0.13
13.863888888888889,-0.125
13.866666666666667,-0.105
13.869444444444444,-0.115
13.872222222222222,-0.12
13.875,-0.13
13.877777777777778,-0.13
13.880555555555556,-0.12
13.883333333333333,-0.125
13.886111111111111,-0.12
13.88888888888889,-0.115
13.891666666666667,-0.11
13.894444444444444,-0.095
13.897222222222222,-0.08
13.9,-0.08
13.902777777777779,-0.09
13.905555555555555,-0.1
13.908333333333333,-0.11
13.911111111111111,-0.1
13.91388888888889,-0.075
13.916666666666666,-0.08
13.919444444444444,-0.09
13.922222222222222,-0.105
13.925,-0.105
13.927777777777777,-0.095
13.930555555555555,-0.09
13.933333333333334,-0.095
13.936111111111112,-0.095
13.938888888888888,-0.09
13.941666666666666,-0.095
13.944444444444445,-0.075
13.947222222222223,-0.07
13.95,-0.08
13.952777777777778,-0.09
13.955555555555556,-0.11
13.958333333333334,-0.11
13.96111111111111,-0.085
13.963888888888889,-0.055
13.966666666666667,-0.04
13.969444444444445,-0.05
13.972222222222221,-0.055
13.975,-0.055
13.977777777777778,-0.06
13.980555555555556,-0.04
13.983333333333333,-0.035
13.98611111111111,-0.03
13.988888888888889,-0.035
13.991666666666667,-0.04
13.994444444444444,-0.025
13.997222222222222,-0.005
14.0,0.0
14.002777777777778,-0.005
14.005555555555556,-0.02
14.008333333333333,-0.015
14.011111111111111,0.005
14.01388888888889,0.015
14.016666666666667,0.01
14.019444444444444,0.01
14.022222222222222,-0.005
14.025,-0.005
14.027777777777779,0.01
14.030555555555555,0.02
14.033333333333333,0.03
14.036111111111111,0.02
14.03888888888889,0.02
14.041666666666666,0.005
14.044444444444444,0.015
14.047222222222222,0.04
14.05,0.05
14.052777777777777,0.04
14.055555555555555,0.035
14.058333333333334,0.03
14.061111111111112,0.025
14.063888888888888,0.045
14.066666666666666,0.035
14.069444444444445,0.035
14.072222222222223,0.005
14.075,0.01
14.077777777777778,0.025
14.080555555555556,0.035
14.083333333333334,0.035
14.08611111111111,0.025
14.088888888888889,0.0
14.091666666666667,-0.01
14.094444444444445,-0.005
14.097222222222221,0.01
14.1,-0.005
14.102777777777778,-0.02
14.105555555555556,-0.03
14.108333333333333,-0.04
14.11111111111111,-0.04
14.113888888888889,-0.03
14.116666666666667,-0.045
14.119444444444444,-0.055
14.122222222222222,-0.07
14.125,-0.095
14.127777777777778,-0.085
14.130555555555556,-0.08
14.133333333333333,-0.1
14.136111111111111,-0.11
14.13888888888889,-0.11
14.141666666666667,-0.1
14.144444444444444,-0.095
14.147222222222222,-0.09
14.15,-0.1
14.152777777777779,-0.115
14.155555555555555,-0.125
14.158333333333333,-0.135
14.161111111111111,-0.135
14.16388888888889,-0.12
14.166666666666666,-0.125
14.169444444444444,-0.135
14.172222222222222,-0.13
14.175,-0.15
