time,voltage
0.0,-0.26
0.002777777777777778,-0.26
0.005555555555555556,-0.26
0.008333333333333333,-0.26
0.011111111111111112,-0.26
0.013888888888888888,-0.26
0.016666666666666666,-0.26
0.019444444444444445,-0.26
0.022222222222222223,-0.145
0.025,-0.175
0.027777777777777776,-0.275
0.030555555555555555,-0.38
0.03333333333333333,-0.405
0.03611111111111111,-0.385
0.03888888888888889,-0.31
0.041666666666666664,-0.24
0.044444444444444446,-0.255
0.04722222222222222,-0.325
0.05,-0.375
0.05277777777777778,-0.345
0.05555555555555555,-0.23
0.058333333333333334,-0.12
0.06111111111111111,-0.06
0.06388888888888888,-0.12
0.06666666666666667,-0.22
0.06944444444444445,-0.35
0.07222222222222222,-0.365
0.075,-0.335
0.07777777777777778,-0.26
0.08055555555555556,-0.175
0.08333333333333333,-0.105
0.08611111111111111,-0.14
0.08888888888888889,-0.2
0.09166666666666666,-0.235
0.09444444444444444,-0.295
0.09722222222222222,-0.395
0.1,-0.49
0.10277777777777777,-0.475
0.10555555555555556,-0.395
0.10833333333333334,-0.315
0.1111111111111111,-0.26
0.11388888888888889,-0.21
0.11666666666666667,-0.2
0.11944444444444445,-0.16
0.12222222222222222,-0.095
0.125,-0.04
0.12777777777777777,-0.02
0.13055555555555556,-0.035
0.13333333333333333,-0.09
0.1361111111111111,-0.17
0.1388888888888889,-0.24
0.14166666666666666,-0.28
0.14444444444444443,-0.3
0.14722222222222223,-0.285
0.15,-0.275
0.1527777777777778,-0.245
0.15555555555555556,-0.185
0.15833333333333333,-0.1
0.16111111111111112,-0.055
0.1638888888888889,-0.13
0.16666666666666666,-0.295
0.16944444444444445,-0.4
0.17222222222222222,-0.345
0.175,-0.27
0.17777777777777778,-0.255
0.18055555555555555,-0.255
0.18333333333333332,-0.215
0.18611111111111112,-0.175
0.18888888888888888,-0.155
0.19166666666666668,-0.175
0.19444444444444445,-0.235
0.19722222222222222,-0.315
0.2,-0.335
0.20277777777777778,-0.31
0.20555555555555555,-0.26
0.20833333333333334,-0.26
0.2111111111111111,-0.305
0.21388888888888888,-0.34
0.21666666666666667,-0.28
0.21944444444444444,-0.205
0.2222222222222222,-0.16
0.225,-0.215
0.22777777777777777,-0.34
0.23055555555555557,-0.34
0.23333333333333334,-0.165
0.2361111111111111,0.04
0.2388888888888889,0.18
0.24166666666666667,0.23
0.24444444444444444,0.26
0.24722222222222223,0.255
0.25,0.275
0.25277777777777777,0.43
0.25555555555555554,0.7
0.25833333333333336,1.0
0.2611111111111111,1.285
0.2638888888888889,1.465
0.26666666666666666,1.53
0.26944444444444443,1.48
0.2722222222222222,1.385
0.275,1.345
0.2777777777777778,1.355
0.28055555555555556,1.37
0.2833333333333333,1.325
0.2861111111111111,1.26
0.28888888888888886,1.17
0.2916666666666667,1.025
0.29444444444444445,0.83
0.2972222222222222,0.655
0.3,0.52
0.30277777777777776,0.42
0.3055555555555556,0.36
0.30833333333333335,0.24
0.3111111111111111,0.0
0.3138888888888889,-0.255
0.31666666666666665,-0.395
0.3194444444444444,-0.4
0.32222222222222224,-0.29
0.325,-0.185
0.3277777777777778,-0.165
0.33055555555555555,-0.285
0.3333333333333333,-0.43
0.33611111111111114,-0.495
0.3388888888888889,-0.485
0.3416666666666667,-0.415
0.34444444444444444,-0.365
0.3472222222222222,-0.34
0.35,-0.37
0.3527777777777778,-0.47
0.35555555555555557,-0.535
0.35833333333333334,-0.565
0.3611111111111111,-0.535
0.3638888888888889,-0.5
0.36666666666666664,-0.44
0.36944444444444446,-0.41
0.37222222222222223,-0.41
0.375,-0.505
0.37777777777777777,-0.655
0.38055555555555554,-0.77
0.38333333333333336,-0.775
0.3861111111111111,-0.62
0.3888888888888889,-0.45
0.39166666666666666,-0.405
0.39444444444444443,-0.465
0.3972222222222222,-0.535
0.4,-0.575
0.4027777777777778,-0.55
0.40555555555555556,-0.52
0.4083333333333333,-0.51
0.4111111111111111,-0.49
0.41388888888888886,-0.455
0.4166666666666667,-0.51
0.41944444444444445,-0.64
0.4222222222222222,-0.69
0.425,-0.615
0.42777777777777776,-0.495
0.4305555555555556,-0.44
0.43333333333333335,-0.405
0.4361111111111111,-0.36
0.4388888888888889,-0.34
0.44166666666666665,-0.425
0.4444444444444444,-0.57
0.44722222222222224,-0.615
0.45,-0.525
0.4527777777777778,-0.425
0.45555555555555555,-0.42
0.4583333333333333,-0.43
0.46111111111111114,-0.4
0.4638888888888889,-0.355
0.4666666666666667,-0.365
0.46944444444444444,-0.395
0.4722222222222222,-0.4
0.475,-0.355
0.4777777777777778,-0.33
0.48055555555555557,-0.34
0.48333333333333334,-0.33
0.4861111111111111,-0.315
0.4888888888888889,-0.275
0.49166666666666664,-0.215
0.49444444444444446,-0.135
0.49722222222222223,-0.075
0.5,-0.08
0.5027777777777778,-0.055
0.5055555555555555,-0.03
0.5083333333333333,-0.02
0.5111111111111111,-0.035
0.5138888888888888,-0.045
0.5166666666666667,-0.05
0.5194444444444445,-0.07
0.5222222222222223,-0.065
0.525,-0.14
0.5277777777777778,-0.21
0.5305555555555556,-0.25
0.5333333333333333,-0.205
0.5361111111111111,-0.01
0.5388888888888889,0.125
0.5416666666666666,0.08
0.5444444444444444,-0.05
0.5472222222222223,-0.17
0.55,-0.225
0.5527777777777778,-0.28
0.5555555555555556,-0.34
0.5583333333333333,-0.32
0.5611111111111111,-0.255
0.5638888888888889,-0.15
0.5666666666666667,-0.045
0.5694444444444444,-0.01
0.5722222222222222,-0.01
0.575,0.035
0.5777777777777777,0.015
0.5805555555555556,-0.155
0.5833333333333334,-0.455
0.5861111111111111,-0.655
0.5888888888888889,-0.64
0.5916666666666667,-0.465
0.5944444444444444,-0.29
0.5972222222222222,-0.245
0.6,-0.26
0.6027777777777777,-0.275
0.6055555555555555,-0.275
0.6083333333333333,-0.28
0.6111111111111112,-0.32
0.6138888888888889,-0.405
0.6166666666666667,-0.44
0.6194444444444445,-0.38
0.6222222222222222,-0.225
0.625,-0.135
0.6277777777777778,-0.175
0.6305555555555555,-0.25
0.6333333333333333,-0.32
0.6361111111111111,-0.33
0.6388888888888888,-0.26
0.6416666666666667,-0.155
0.6444444444444445,-0.12
0.6472222222222223,-0.18
0.65,-0.31
0.6527777777777778,-0.37
0.6555555555555556,-0.33
0.6583333333333333,-0.3
0.6611111111111111,-0.4
0.6638888888888889,-0.5
0.6666666666666666,-0.54
0.6694444444444444,-0.51
0.6722222222222223,-0.39
0.675,-0.22
0.6777777777777778,-0.125
0.6805555555555556,-0.165
0.6833333333333333,-0.3
0.6861111111111111,-0.375
0.6888888888888889,-0.37
0.6916666666666667,-0.38
0.6944444444444444,-0.4
0.6972222222222222,-0.385
0.7,-0.34
0.7027777777777777,-0.32
0.7055555555555556,-0.305
0.7083333333333334,-0.25
0.7111111111111111,-0.175
0.7138888888888889,-0.145
0.7166666666666667,-0.17
0.7194444444444444,-0.25
0.7222222222222222,-0.32
0.725,-0.345
0.7277777777777777,-0.32
0.7305555555555555,-0.2
0.7333333333333333,-0.07
0.7361111111111112,-0.07
0.7388888888888889,-0.205
0.7416666666666667,-0.32
0.7444444444444445,-0.32
0.7472222222222222,-0.235
0.75,-0.155
0.7527777777777778,-0.155
0.7555555555555555,-0.23
0.7583333333333333,-0.26
0.7611111111111111,-0.215
0.7638888888888888,-0.17
0.7666666666666667,-0.13
0.7694444444444445,-0.1
0.7722222222222223,-0.11
0.775,-0.17
0.7777777777777778,-0.23
0.7805555555555556,-0.27
0.7833333333333333,-0.265
0.7861111111111111,-0.23
0.7888888888888889,-0.185
0.7916666666666666,-0.16
0.7944444444444444,-0.17
0.7972222222222223,-0.19
0.8,-0.185
0.8027777777777778,-0.16
0.8055555555555556,-0.175
0.8083333333333333,-0.215
0.8111111111111111,-0.255
0.8138888888888889,-0.295
0.8166666666666667,-0.3
0.8194444444444444,-0.215
0.8222222222222222,-0.14
0.825,-0.11
0.8277777777777777,-0.15
0.8305555555555556,-0.21
0.8333333333333334,-0.245
0.8361111111111111,-0.18
0.8388888888888889,-0.085
0.8416666666666667,-0.045
0.8444444444444444,-0.125
0.8472222222222222,-0.28
0.85,-0.435
0.8527777777777777,-0.475
0.8555555555555555,-0.4
0.8583333333333333,-0.265
0.8611111111111112,-0.175
0.8638888888888889,-0.18
0.8666666666666667,-0.23
0.8694444444444445,-0.215
0.8722222222222222,-0.14
0.875,-0.11
0.8777777777777778,-0.165
0.8805555555555555,-0.245
0.8833333333333333,-0.29
0.8861111111111111,-0.29
0.8888888888888888,-0.28
0.8916666666666667,-0.275
0.8944444444444445,-0.225
0.8972222222222223,-0.2
0.9,-0.21
0.9027777777777778,-0.265
0.9055555555555556,-0.28
0.9083333333333333,-0.235
0.9111111111111111,-0.195
0.9138888888888889,-0.185
0.9166666666666666,-0.2
0.9194444444444444,-0.185
0.9222222222222223,-0.125
0.925,-0.05
0.9277777777777778,0.02
0.9305555555555556,0.0
0.9333333333333333,-0.09
0.9361111111111111,-0.17
0.9388888888888889,-0.205
0.9416666666666667,-0.18
0.9444444444444444,-0.09
0.9472222222222222,-0.025
0.95,-0.06
0.9527777777777777,-0.175
0.9555555555555556,-0.215
0.9583333333333334,-0.175
0.9611111111111111,-0.155
0.9638888888888889,-0.145
0.9666666666666667,-0.08
0.9694444444444444,0.015
0.9722222222222222,0.01
0.975,-0.1
0.9777777777777777,-0.18
0.9805555555555555,-0.18
0.9833333333333333,-0.11
0.9861111111111112,-0.125
0.9888888888888889,-0.205
0.9916666666666667,-0.235
0.9944444444444445,-0.19
0.9972222222222222,-0.125
1.0,-0.12
1.0027777777777778,-0.13
1.0055555555555555,-0.105
1.0083333333333333,-0.035
1.011111111111111,-0.03
1.0138888888888888,-0.16
1.0166666666666666,-0.325
1.0194444444444444,-0.33
1.0222222222222221,-0.24
1.025,-0.185
1.0277777777777777,-0.205
1.0305555555555554,-0.19
1.0333333333333334,-0.155
1.0361111111111112,-0.15
1.038888888888889,-0.155
1.0416666666666667,-0.19
1.0444444444444445,-0.18
1.0472222222222223,-0.125
1.05,-0.095
1.0527777777777778,-0.105
1.0555555555555556,-0.055
1.0583333333333333,-0.02
1.0611111111111111,-0.065
1.0638888888888889,-0.145
1.0666666666666667,-0.205
1.0694444444444444,-0.185
1.0722222222222222,-0.135
1.075,-0.125
1.0777777777777777,-0.155
1.0805555555555555,-0.185
1.0833333333333333,-0.14
1.086111111111111,-0.08
1.0888888888888888,-0.02
1.0916666666666666,-0.01
1.0944444444444446,-0.03
1.0972222222222223,-0.035
1.1,-0.015
1.1027777777777779,-0.005
1.1055555555555556,-0.02
1.1083333333333334,-0.105
1.1111111111111112,-0.2
1.113888888888889,-0.235
1.1166666666666667,-0.185
1.1194444444444445,-0.155
1.1222222222222222,-0.145
1.125,-0.075
1.1277777777777778,-0.03
1.1305555555555555,-0.055
1.1333333333333333,-0.085
1.136111111111111,-0.09
1.1388888888888888,-0.05
1.1416666666666666,0.03
1.1444444444444444,0.135
1.1472222222222221,0.19
1.15,0.185
1.1527777777777777,0.17
1.1555555555555554,0.17
1.1583333333333334,0.16
1.1611111111111112,0.125
1.163888888888889,0.115
1.1666666666666667,0.245
1.1694444444444445,0.47
1.1722222222222223,0.69
1.175,0.86
1.1777777777777778,1.04
1.1805555555555556,1.265
1.1833333333333333,1.485
1.1861111111111111,1.67
1.1888888888888889,1.76
1.1916666666666667,1.815
1.1944444444444444,1.8
1.1972222222222222,1.715
1.2,1.63
1.2027777777777777,1.635
1.2055555555555555,1.625
1.2083333333333333,1.535
1.211111111111111,1.375
1.2138888888888888,1.21
1.2166666666666666,1.065
1.2194444444444446,0.9
1.2222222222222223,0.68
1.225,0.33
1.2277777777777779,0.035
1.2305555555555556,-0.08
1.2333333333333334,-0.08
1.2361111111111112,-0.085
1.238888888888889,-0.075
1.2416666666666667,-0.07
1.2444444444444445,-0.12
1.2472222222222222,-0.27
1.25,-0.445
1.2527777777777778,-0.55
1.2555555555555555,-0.565
1.2583333333333333,-0.47
1.261111111111111,-0.3
1.2638888888888888,-0.22
1.2666666666666666,-0.305
1.2694444444444444,-0.5
1.2722222222222221,-0.645
1.275,-0.66
1.2777777777777777,-0.585
1.2805555555555554,-0.5
1.2833333333333334,-0.445
1.2861111111111112,-0.455
1.288888888888889,-0.465
1.2916666666666667,-0.465
1.2944444444444445,-0.5
1.2972222222222223,-0.47
1.3,-0.43
1.3027777777777778,-0.4
1.3055555555555556,-0.435
1.3083333333333333,-0.475
1.3111111111111111,-0.46
1.3138888888888889,-0.445
1.3166666666666667,-0.475
1.3194444444444444,-0.55
1.3222222222222222,-0.64
1.325,-0.655
1.3277777777777777,-0.61
1.3305555555555555,-0.545
1.3333333333333333,-0.475
1.336111111111111,-0.425
1.3388888888888888,-0.395
1.3416666666666666,-0.41
1.3444444444444446,-0.415
1.3472222222222223,-0.46
1.35,-0.475
1.3527777777777779,-0.465
1.3555555555555556,-0.435
1.3583333333333334,-0.405
1.3611111111111112,-0.38
1.363888888888889,-0.375
1.3666666666666667,-0.38
1.3694444444444445,-0.395
1.3722222222222222,-0.42
1.375,-0.455
1.3777777777777778,-0.49
1.3805555555555555,-0.51
1.3833333333333333,-0.475
1.386111111111111,-0.415
1.3888888888888888,-0.355
1.3916666666666666,-0.34
1.3944444444444444,-0.345
1.3972222222222221,-0.35
1.4,-0.3
1.4027777777777777,-0.2
1.4055555555555554,-0.105
1.4083333333333334,-0.045
1.4111111111111112,-0.065
1.413888888888889,-0.165
1.4166666666666667,-0.25
1.4194444444444445,-0.285
1.4222222222222223,-0.215
1.425,-0.07
1.4277777777777778,0.06
1.4305555555555556,0.095
1.4333333333333333,-0.035
1.4361111111111111,-0.15
1.4388888888888889,-0.09
1.4416666666666667,0.06
1.4444444444444444,0.135
1.4472222222222222,0.06
1.45,-0.11
1.4527777777777777,-0.215
1.4555555555555555,-0.165
1.4583333333333333,-0.08
1.461111111111111,-0.04
1.4638888888888888,-0.055
1.4666666666666666,-0.03
1.4694444444444446,-0.025
1.4722222222222223,-0.04
1.475,-0.035
1.4777777777777779,-0.08
1.4805555555555556,-0.1
1.4833333333333334,-0.05
1.4861111111111112,0.055
1.488888888888889,0.075
1.4916666666666667,0.0
1.4944444444444445,-0.135
1.4972222222222222,-0.2
1.5,-0.15
1.5027777777777778,-0.07
1.5055555555555555,-0.02
1.5083333333333333,0.01
1.511111111111111,0.015
1.5138888888888888,0.04
1.5166666666666666,-0.015
1.5194444444444444,-0.095
1.5222222222222221,-0.185
1.525,-0.19
1.5277777777777777,-0.155
1.5305555555555554,-0.1
1.5333333333333334,-0.06
1.5361111111111112,-0.025
1.538888888888889,-0.005
1.5416666666666667,0.015
1.5444444444444445,0.03
1.5472222222222223,0.025
1.55,0.02
1.5527777777777778,-0.015
1.5555555555555556,-0.045
1.5583333333333333,-0.08
1.5611111111111111,-0.085
1.5638888888888889,-0.09
1.5666666666666667,-0.085
1.5694444444444444,-0.08
1.5722222222222222,-0.105
1.575,-0.1
1.5777777777777777,-0.09
1.5805555555555555,-0.025
1.5833333333333333,-0.01
1.586111111111111,-0.04
1.5888888888888888,-0.09
1.5916666666666666,-0.105
1.5944444444444446,-0.055
1.5972222222222223,-0.01
1.6,-0.025
1.6027777777777779,-0.09
1.6055555555555556,-0.14
1.6083333333333334,-0.19
1.6111111111111112,-0.225
1.613888888888889,-0.21
1.6166666666666667,-0.11
1.6194444444444445,-0.05
1.6222222222222222,-0.055
1.625,-0.07
1.6277777777777778,-0.045
1.6305555555555555,-0.075
1.6333333333333333,-0.12
1.636111111111111,-0.125
1.6388888888888888,-0.025
1.6416666666666666,0.1
1.6444444444444444,0.175
1.6472222222222221,0.085
1.65,-0.095
1.6527777777777777,-0.2
1.6555555555555554,-0.22
1.6583333333333334,-0.16
1.6611111111111112,-0.095
1.663888888888889,-0.055
1.6666666666666667,-0.07
1.6694444444444445,-0.075
1.6722222222222223,-0.075
1.675,-0.125
1.6777777777777778,-0.2
1.6805555555555556,-0.26
1.6833333333333333,-0.18
1.6861111111111111,-0.065
1.6888888888888889,0.015
1.6916666666666667,0.02
1.6944444444444444,-0.05
1.6972222222222222,-0.155
1.7,-0.215
1.7027777777777777,-0.175
1.7055555555555555,-0.055
1.7083333333333333,0.07
1.711111111111111,0.11
1.7138888888888888,0.01
1.7166666666666666,-0.11
1.7194444444444446,-0.19
1.7222222222222223,-0.2
1.725,-0.17
1.7277777777777779,-0.095
1.7305555555555556,-0.055
1.7333333333333334,-0.05
1.7361111111111112,-0.05
1.738888888888889,-0.06
1.7416666666666667,-0.085
1.7444444444444445,-0.125
1.7472222222222222,-0.13
1.75,-0.105
1.7527777777777778,-0.05
1.7555555555555555,0.005
1.7583333333333333,-0.01
1.761111111111111,-0.07
1.7638888888888888,-0.12
1.7666666666666666,-0.125
1.7694444444444444,-0.035
1.7722222222222221,0.065
1.775,0.095
1.7777777777777777,0.08
1.7805555555555554,0.015
1.7833333333333334,-0.06
1.7861111111111112,-0.08
1.788888888888889,0.03
1.7916666666666667,0.2
1.7944444444444445,0.31
1.7972222222222223,0.335
1.8,0.335
1.8027777777777778,0.4
1.8055555555555556,0.48
1.8083333333333333,0.59
1.8111111111111111,0.745
1.8138888888888889,0.975
1.8166666666666667,1.215
1.8194444444444444,1.4
1.8222222222222222,1.48
1.825,1.46
1.8277777777777777,1.42
1.8305555555555555,1.425
1.8333333333333333,1.455
1.836111111111111,1.51
1.8388888888888888,1.545
1.8416666666666666,1.54
1.8444444444444446,1.34
1.8472222222222223,1.07
1.85,0.85
1.8527777777777779,0.735
1.8555555555555556,0.64
1.8583333333333334,0.405
1.8611111111111112,0.095
1.863888888888889,-0.145
1.8666666666666667,-0.195
1.8694444444444445,-0.17
1.8722222222222222,-0.165
1.875,-0.235
1.8777777777777778,-0.335
1.8805555555555555,-0.39
1.8833333333333333,-0.365
1.886111111111111,-0.355
1.8888888888888888,-0.37
1.8916666666666666,-0.42
1.8944444444444444,-0.455
1.8972222222222221,-0.46
1.9,-0.425
1.9027777777777777,-0.405
1.9055555555555554,-0.38
1.9083333333333334,-0.365
1.9111111111111112,-0.365
1.913888888888889,-0.365
1.9166666666666667,-0.375
1.9194444444444445,-0.41
1.9222222222222223,-0.445
1.925,-0.435
1.9277777777777778,-0.38
1.9305555555555556,-0.355
1.9333333333333333,-0.365
1.9361111111111111,-0.365
1.9388888888888889,-0.305
1.9416666666666667,-0.32
1.9444444444444444,-0.46
1.9472222222222222,-0.59
1.95,-0.635
1.9527777777777777,-0.565
1.9555555555555555,-0.495
1.9583333333333333,-0.47
1.961111111111111,-0.48
1.9638888888888888,-0.465
1.9666666666666666,-0.42
1.9694444444444446,-0.37
1.9722222222222223,-0.385
1.975,-0.4
1.9777777777777779,-0.475
1.9805555555555556,-0.535
1.9833333333333334,-0.52
1.9861111111111112,-0.44
1.988888888888889,-0.345
1.9916666666666667,-0.245
1.9944444444444445,-0.185
1.9972222222222222,-0.225
2.0,-0.29
2.0027777777777778,-0.32
2.0055555555555555,-0.285
2.0083333333333333,-0.25
2.011111111111111,-0.265
2.013888888888889,-0.33
2.0166666666666666,-0.36
2.0194444444444444,-0.31
2.022222222222222,-0.155
2.025,-0.065
2.0277777777777777,-0.155
2.0305555555555554,-0.32
2.033333333333333,-0.335
2.036111111111111,-0.235
2.0388888888888888,-0.12
2.0416666666666665,-0.08
2.0444444444444443,-0.145
2.047222222222222,-0.23
2.05,-0.27
2.0527777777777776,-0.195
2.0555555555555554,-0.04
2.058333333333333,0.055
2.061111111111111,0.05
2.063888888888889,-0.05
2.066666666666667,-0.115
2.0694444444444446,-0.145
2.0722222222222224,-0.09
2.075,-0.035
2.077777777777778,0.0
2.0805555555555557,-0.015
2.0833333333333335,-0.02
2.0861111111111112,-0.04
2.088888888888889,-0.095
2.091666666666667,-0.145
2.0944444444444446,-0.13
2.0972222222222223,-0.12
2.1,-0.135
2.102777777777778,-0.125
2.1055555555555556,-0.1
2.1083333333333334,-0.135
2.111111111111111,-0.215
2.113888888888889,-0.275
2.1166666666666667,-0.235
2.1194444444444445,-0.155
2.1222222222222222,-0.145
2.125,-0.205
2.1277777777777778,-0.355
2.1305555555555555,-0.455
2.1333333333333333,-0.415
2.136111111111111,-0.285
2.138888888888889,-0.2
2.1416666666666666,-0.225
2.1444444444444444,-0.295
2.147222222222222,-0.345
2.15,-0.365
2.1527777777777777,-0.36
2.1555555555555554,-0.345
2.158333333333333,-0.32
2.161111111111111,-0.32
2.1638888888888888,-0.32
2.1666666666666665,-0.305
2.1694444444444443,-0.24
2.172222222222222,-0.195
2.175,-0.235
2.1777777777777776,-0.33
2.1805555555555554,-0.375
2.183333333333333,-0.345
2.186111111111111,-0.265
2.188888888888889,-0.18
2.191666666666667,-0.15
2.1944444444444446,-0.195
2.1972222222222224,-0.23
2.2,-0.245
2.202777777777778,-0.305
2.2055555555555557,-0.36
2.2083333333333335,-0.38
2.2111111111111112,-0.35
2.213888888888889,-0.245
2.216666666666667,-0.185
2.2194444444444446,-0.175
2.2222222222222223,-0.185
2.225,-0.24
2.227777777777778,-0.285
2.2305555555555556,-0.305
2.2333333333333334,-0.305
2.236111111111111,-0.235
2.238888888888889,-0.185
2.2416666666666667,-0.19
2.2444444444444445,-0.235
2.2472222222222222,-0.235
2.25,-0.155
2.2527777777777778,-0.065
2.2555555555555555,-0.08
2.2583333333333333,-0.17
2.261111111111111,-0.28
2.263888888888889,-0.32
2.2666666666666666,-0.32
2.2694444444444444,-0.305
2.272222222222222,-0.245
2.275,-0.175
2.2777777777777777,-0.15
2.2805555555555554,-0.175
2.283333333333333,-0.235
2.286111111111111,-0.31
2.2888888888888888,-0.34
2.2916666666666665,-0.32
2.2944444444444443,-0.27
2.297222222222222,-0.23
2.3,-0.275
2.3027777777777776,-0.37
2.3055555555555554,-0.385
2.308333333333333,-0.315
2.311111111111111,-0.25
2.313888888888889,-0.25
2.316666666666667,-0.265
2.3194444444444446,-0.24
2.3222222222222224,-0.2
2.325,-0.215
2.327777777777778,-0.29
2.3305555555555557,-0.335
2.3333333333333335,-0.29
2.3361111111111112,-0.245
2.338888888888889,-0.23
2.341666666666667,-0.23
2.3444444444444446,-0.24
2.3472222222222223,-0.215
2.35,-0.17
2.352777777777778,-0.135
2.3555555555555556,-0.015
2.3583333333333334,0.09
2.361111111111111,0.185
2.363888888888889,0.185
2.3666666666666667,0.185
2.3694444444444445,0.24
2.3722222222222222,0.325
2.375,0.505
2.3777777777777778,0.82
2.3805555555555555,1.1
2.3833333333333333,1.19
2.386111111111111,1.15
2.388888888888889,1.085
2.3916666666666666,1.08
2.3944444444444444,1.145
2.397222222222222,1.22
2.4,1.28
2.4027777777777777,1.255
2.4055555555555554,1.1
2.408333333333333,0.835
2.411111111111111,0.555
2.4138888888888888,0.305
2.4166666666666665,0.15
2.4194444444444443,0.095
2.422222222222222,0.09
2.425,0.055
2.4277777777777776,-0.09
2.4305555555555554,-0.29
2.433333333333333,-0.435
2.436111111111111,-0.465
2.438888888888889,-0.435
2.441666666666667,-0.365
2.4444444444444446,-0.285
2.4472222222222224,-0.265
2.45,-0.345
2.452777777777778,-0.455
2.4555555555555557,-0.535
2.4583333333333335,-0.52
2.4611111111111112,-0.445
2.463888888888889,-0.38
2.466666666666667,-0.46
2.4694444444444446,-0.615
2.4722222222222223,-0.68
2.475,-0.665
2.477777777777778,-0.58
2.4805555555555556,-0.55
2.4833333333333334,-0.535
2.486111111111111,-0.55
2.488888888888889,-0.53
2.4916666666666667,-0.525
2.4944444444444445,-0.545
2.4972222222222222,-0.565
2.5,-0.585
2.5027777777777778,-0.58
2.5055555555555555,-0.565
2.5083333333333333,-0.53
2.511111111111111,-0.49
2.513888888888889,-0.46
2.5166666666666666,-0.48
2.5194444444444444,-0.57
2.522222222222222,-0.6
2.525,-0.565
2.5277777777777777,-0.47
2.5305555555555554,-0.445
2.533333333333333,-0.46
2.536111111111111,-0.495
2.5388888888888888,-0.465
2.5416666666666665,-0.375
2.5444444444444443,-0.305
2.547222222222222,-0.365
2.55,-0.48
2.5527777777777776,-0.59
2.5555555555555554,-0.605
2.558333333333333,-0.53
2.561111111111111,-0.505
2.563888888888889,-0.425
2.566666666666667,-0.345
2.5694444444444446,-0.3
2.5722222222222224,-0.32
2.575,-0.375
2.577777777777778,-0.4
2.5805555555555557,-0.43
2.5833333333333335,-0.45
2.5861111111111112,-0.39
2.588888888888889,-0.285
2.591666666666667,-0.255
2.5944444444444446,-0.315
2.5972222222222223,-0.315
2.6,-0.28
2.602777777777778,-0.26
2.6055555555555556,-0.275
2.6083333333333334,-0.26
2.611111111111111,-0.185
2.613888888888889,-0.12
2.6166666666666667,-0.145
2.6194444444444445,-0.2
2.6222222222222222,-0.205
2.625,-0.16
2.6277777777777778,-0.13
2.6305555555555555,-0.175
2.6333333333333333,-0.26
2.636111111111111,-0.315
2.638888888888889,-0.295
2.6416666666666666,-0.245
2.6444444444444444,-0.19
2.647222222222222,-0.125
2.65,-0.095
2.6527777777777777,-0.12
2.6555555555555554,-0.23
2.658333333333333,-0.345
2.661111111111111,-0.34
2.6638888888888888,-0.275
2.6666666666666665,-0.265
2.6694444444444443,-0.285
2.672222222222222,-0.29
2.675,-0.245
2.6777777777777776,-0.24
2.6805555555555554,-0.245
2.683333333333333,-0.2
2.686111111111111,-0.105
2.688888888888889,-0.03
2.691666666666667,-0.085
2.6944444444444446,-0.27
2.6972222222222224,-0.395
2.7,-0.3
2.702777777777778,-0.1
2.7055555555555557,-0.07
2.7083333333333335,-0.225
2.7111111111111112,-0.37
2.713888888888889,-0.34
2.716666666666667,-0.185
2.7194444444444446,-0.01
2.7222222222222223,0.055
2.725,-0.04
2.727777777777778,-0.21
2.7305555555555556,-0.31
2.7333333333333334,-0.375
2.736111111111111,-0.42
2.738888888888889,-0.46
2.7416666666666667,-0.455
2.7444444444444445,-0.38
2.7472222222222222,-0.33
2.75,-0.35
2.7527777777777778,-0.345
2.7555555555555555,-0.23
2.7583333333333333,-0.055
2.761111111111111,0.075
2.763888888888889,0.17
2.7666666666666666,0.255
2.7694444444444444,0.345
2.772222222222222,0.4
2.775,0.62
2.7777777777777777,0.795
2.7805555555555554,0.865
2.783333333333333,0.815
2.786111111111111,0.765
2.7888888888888888,0.735
2.7916666666666665,0.605
2.7944444444444443,0.4
2.797222222222222,0.215
2.8,0.095
2.8027777777777776,-0.015
2.8055555555555554,-0.18
2.808333333333333,-0.305
2.811111111111111,-0.365
2.813888888888889,-0.375
2.816666666666667,-0.405
2.8194444444444446,-0.435
2.8222222222222224,-0.505
2.825,-0.585
2.827777777777778,-0.64
2.8305555555555557,-0.625
2.8333333333333335,-0.51
2.8361111111111112,-0.405
2.838888888888889,-0.35
2.841666666666667,-0.39
2.8444444444444446,-0.505
2.8472222222222223,-0.585
2.85,-0.615
2.852777777777778,-0.605
2.8555555555555556,-0.635
2.8583333333333334,-0.69
2.861111111111111,-0.695
2.863888888888889,-0.65
2.8666666666666667,-0.6
2.8694444444444445,-0.57
2.8722222222222222,-0.58
2.875,-0.56
2.8777777777777778,-0.575
2.8805555555555555,-0.6
2.8833333333333333,-0.57
2.886111111111111,-0.535
2.888888888888889,-0.535
2.8916666666666666,-0.545
2.8944444444444444,-0.535
2.897222222222222,-0.46
2.9,-0.335
2.9027777777777777,-0.32
2.9055555555555554,-0.435
2.908333333333333,-0.56
2.911111111111111,-0.655
2.9138888888888888,-0.66
2.9166666666666665,-0.56
2.9194444444444443,-0.48
2.922222222222222,-0.455
2.925,-0.445
2.9277777777777776,-0.405
2.9305555555555554,-0.33
2.933333333333333,-0.27
2.936111111111111,-0.275
2.938888888888889,-0.33
2.941666666666667,-0.375
2.9444444444444446,-0.37
2.9472222222222224,-0.37
2.95,-0.395
2.952777777777778,-0.355
2.9555555555555557,-0.275
2.9583333333333335,-0.21
2.9611111111111112,-0.205
2.963888888888889,-0.195
2.966666666666667,-0.19
2.9694444444444446,-0.225
2.9722222222222223,-0.295
2.975,-0.39
2.977777777777778,-0.43
2.9805555555555556,-0.425
2.9833333333333334,-0.385
2.986111111111111,-0.33
2.988888888888889,-0.265
2.9916666666666667,-0.255
2.9944444444444445,-0.295
2.9972222222222222,-0.32
3.0,-0.31
3.0027777777777778,-0.29
3.0055555555555555,-0.28
3.0083333333333333,-0.315
3.011111111111111,-0.335
3.013888888888889,-0.37
3.0166666666666666,-0.37
3.0194444444444444,-0.35
3.022222222222222,-0.295
3.025,-0.24
3.0277777777777777,-0.25
3.0305555555555554,-0.27
3.033333333333333,-0.31
3.036111111111111,-0.41
3.0388888888888888,-0.555
3.0416666666666665,-0.61
3.0444444444444443,-0.525
3.047222222222222,-0.435
3.05,-0.425
3.0527777777777776,-0.41
3.0555555555555554,-0.39
3.058333333333333,-0.37
3.061111111111111,-0.37
3.063888888888889,-0.385
3.066666666666667,-0.42
3.0694444444444446,-0.44
3.0722222222222224,-0.43
3.075,-0.415
3.077777777777778,-0.435
3.0805555555555557,-0.415
3.0833333333333335,-0.35
3.0861111111111112,-0.32
3.088888888888889,-0.395
3.091666666666667,-0.51
3.0944444444444446,-0.54
3.0972222222222223,-0.43
3.1,-0.365
3.102777777777778,-0.41
3.1055555555555556,-0.475
3.1083333333333334,-0.54
3.111111111111111,-0.545
3.113888888888889,-0.5
3.1166666666666667,-0.415
3.1194444444444445,-0.405
3.1222222222222222,-0.43
3.125,-0.46
3.1277777777777778,-0.485
3.1305555555555555,-0.52
3.1333333333333333,-0.49
3.136111111111111,-0.45
3.138888888888889,-0.42
3.1416666666666666,-0.43
3.1444444444444444,-0.46
3.147222222222222,-0.48
3.15,-0.44
3.1527777777777777,-0.42
3.1555555555555554,-0.495
3.158333333333333,-0.57
3.161111111111111,-0.55
3.1638888888888888,-0.52
3.1666666666666665,-0.57
3.1694444444444443,-0.615
3.172222222222222,-0.575
3.175,-0.5
3.1777777777777776,-0.46
3.1805555555555554,-0.455
3.183333333333333,-0.515
3.186111111111111,-0.555
3.188888888888889,-0.575
3.191666666666667,-0.525
3.1944444444444446,-0.52
3.1972222222222224,-0.46
3.2,-0.425
3.202777777777778,-0.43
3.2055555555555557,-0.515
3.2083333333333335,-0.585
3.2111111111111112,-0.59
3.213888888888889,-0.585
3.216666666666667,-0.54
3.2194444444444446,-0.465
3.2222222222222223,-0.455
3.225,-0.48
3.227777777777778,-0.485
3.2305555555555556,-0.485
3.2333333333333334,-0.525
3.236111111111111,-0.595
3.238888888888889,-0.595
3.2416666666666667,-0.46
3.2444444444444445,-0.285
3.2472222222222222,-0.29
3.25,-0.495
3.2527777777777778,-0.675
3.2555555555555555,-0.735
3.2583333333333333,-0.7
3.261111111111111,-0.635
3.263888888888889,-0.605
3.2666666666666666,-0.64
3.2694444444444444,-0.63
3.272222222222222,-0.585
3.275,-0.565
3.2777777777777777,-0.505
3.2805555555555554,-0.47
3.283333333333333,-0.51
3.286111111111111,-0.545
3.2888888888888888,-0.47
3.2916666666666665,-0.4
3.2944444444444443,-0.53
3.297222222222222,-0.725
3.3,-0.765
3.3027777777777776,-0.65
3.3055555555555554,-0.61
3.308333333333333,-0.615
3.311111111111111,-0.585
3.313888888888889,-0.57
3.316666666666667,-0.54
3.3194444444444446,-0.5
3.3222222222222224,-0.535
3.325,-0.675
3.327777777777778,-0.795
3.3305555555555557,-0.855
3.3333333333333335,-0.86
3.3361111111111112,-0.8
3.338888888888889,-0.66
3.341666666666667,-0.585
3.3444444444444446,-0.575
3.3472222222222223,-0.58
3.35,-0.625
3.352777777777778,-0.62
3.3555555555555556,-0.61
3.3583333333333334,-0.605
3.361111111111111,-0.585
3.363888888888889,-0.575
3.3666666666666667,-0.53
3.3694444444444445,-0.51
3.3722222222222222,-0.48
3.375,-0.495
3.3777777777777778,-0.52
3.3805555555555555,-0.525
3.3833333333333333,-0.48
3.386111111111111,-0.46
3.388888888888889,-0.505
3.3916666666666666,-0.51
3.3944444444444444,-0.5
3.397222222222222,-0.555
3.4,-0.67
3.4027777777777777,-0.705
3.4055555555555554,-0.605
3.408333333333333,-0.465
3.411111111111111,-0.39
3.4138888888888888,-0.46
3.4166666666666665,-0.62
3.4194444444444443,-0.75
3.422222222222222,-0.765
3.425,-0.63
3.4277777777777776,-0.485
3.4305555555555554,-0.455
3.433333333333333,-0.495
3.436111111111111,-0.56
3.438888888888889,-0.595
3.441666666666667,-0.61
3.4444444444444446,-0.64
3.4472222222222224,-0.665
3.45,-0.61
3.452777777777778,-0.52
3.4555555555555557,-0.42
3.4583333333333335,-0.41
3.4611111111111112,-0.47
3.463888888888889,-0.585
3.466666666666667,-0.655
3.4694444444444446,-0.665
3.4722222222222223,-0.635
3.475,-0.585
3.477777777777778,-0.585
3.4805555555555556,-0.615
3.4833333333333334,-0.555
3.486111111111111,-0.465
3.488888888888889,-0.415
3.4916666666666667,-0.375
3.4944444444444445,-0.305
3.4972222222222222,-0.205
3.5,-0.11
3.5027777777777778,0.035
3.5055555555555555,0.27
3.5083333333333333,0.47
3.511111111111111,0.615
3.513888888888889,0.92
3.5166666666666666,1.29
3.5194444444444444,1.465
3.522222222222222,1.395
3.525,1.21
3.5277777777777777,1.125
3.5305555555555554,1.17
3.533333333333333,1.315
3.536111111111111,1.435
3.5388888888888888,1.32
3.5416666666666665,0.995
3.5444444444444443,0.675
3.547222222222222,0.44
3.55,0.2
3.5527777777777776,-0.07
3.5555555555555554,-0.32
3.558333333333333,-0.43
3.561111111111111,-0.54
3.563888888888889,-0.69
3.566666666666667,-0.745
3.5694444444444446,-0.65
3.5722222222222224,-0.62
3.575,-0.71
3.577777777777778,-0.825
3.5805555555555557,-0.84
3.5833333333333335,-0.795
3.5861111111111112,-0.81
3.588888888888889,-0.875
3.591666666666667,-0.935
3.5944444444444446,-0.94
3.5972222222222223,-0.89
3.6,-0.8
3.602777777777778,-0.77
3.6055555555555556,-0.85
3.6083333333333334,-1.035
3.611111111111111,-1.18
3.613888888888889,-1.18
3.6166666666666667,-1.09
3.6194444444444445,-1.03
3.6222222222222222,-1.05
3.625,-1.08
3.6277777777777778,-1.045
3.6305555555555555,-0.985
3.6333333333333333,-0.93
3.636111111111111,-0.935
3.638888888888889,-0.965
3.6416666666666666,-1.025
3.6444444444444444,-1.085
3.647222222222222,-1.105
3.65,-1.085
3.6527777777777777,-1.055
3.6555555555555554,-1.04
3.658333333333333,-0.985
3.661111111111111,-0.95
3.6638888888888888,-0.93
3.6666666666666665,-0.935
3.6694444444444443,-0.935
3.672222222222222,-0.89
3.675,-0.86
3.6777777777777776,-0.905
3.6805555555555554,-0.965
3.683333333333333,-0.975
3.686111111111111,-0.895
3.688888888888889,-0.82
3.691666666666667,-0.84
3.6944444444444446,-0.945
3.6972222222222224,-1.04
3.7,-1.005
3.702777777777778,-0.915
3.7055555555555557,-0.825
3.7083333333333335,-0.785
3.7111111111111112,-0.81
3.713888888888889,-0.875
3.716666666666667,-0.93
3.7194444444444446,-0.895
3.7222222222222223,-0.81
3.725,-0.705
3.727777777777778,-0.64
3.7305555555555556,-0.645
3.7333333333333334,-0.73
3.736111111111111,-0.795
3.738888888888889,-0.79
3.7416666666666667,-0.72
3.7444444444444445,-0.65
3.7472222222222222,-0.57
3.75,-0.48
3.7527777777777778,-0.395
3.7555555555555555,-0.355
3.7583333333333333,-0.425
3.761111111111111,-0.545
3.763888888888889,-0.62
3.7666666666666666,-0.65
3.7694444444444444,-0.69
3.772222222222222,-0.725
3.775,-0.72
3.7777777777777777,-0.68
3.7805555555555554,-0.635
3.783333333333333,-0.64
3.786111111111111,-0.645
3.7888888888888888,-0.59
3.7916666666666665,-0.495
3.7944444444444443,-0.445
3.797222222222222,-0.475
3.8,-0.525
3.8027777777777776,-0.54
3.8055555555555554,-0.535
3.808333333333333,-0.54
3.811111111111111,-0.545
3.813888888888889,-0.545
3.816666666666667,-0.51
3.8194444444444446,-0.475
3.8222222222222224,-0.415
3.825,-0.34
3.827777777777778,-0.325
3.8305555555555557,-0.335
3.8333333333333335,-0.38
3.8361111111111112,-0.445
3.838888888888889,-0.52
3.841666666666667,-0.53
3.8444444444444446,-0.445
3.8472222222222223,-0.405
3.85,-0.52
3.852777777777778,-0.635
3.8555555555555556,-0.64
3.8583333333333334,-0.54
3.861111111111111,-0.455
3.863888888888889,-0.395
3.8666666666666667,-0.38
3.8694444444444445,-0.41
3.8722222222222222,-0.465
3.875,-0.485
3.8777777777777778,-0.47
3.8805555555555555,-0.475
3.8833333333333333,-0.485
3.886111111111111,-0.455
3.888888888888889,-0.39
3.8916666666666666,-0.305
3.8944444444444444,-0.245
3.897222222222222,-0.175
3.9,-0.22
3.9027777777777777,-0.39
3.9055555555555554,-0.565
3.908333333333333,-0.66
3.911111111111111,-0.675
3.9138888888888888,-0.68
3.9166666666666665,-0.67
3.9194444444444443,-0.575
3.922222222222222,-0.49
3.925,-0.445
3.9277777777777776,-0.455
3.9305555555555554,-0.495
3.933333333333333,-0.5
3.936111111111111,-0.525
3.938888888888889,-0.545
3.941666666666667,-0.56
3.9444444444444446,-0.53
3.9472222222222224,-0.44
3.95,-0.4
3.952777777777778,-0.43
3.9555555555555557,-0.43
3.9583333333333335,-0.325
3.9611111111111112,-0.21
3.963888888888889,-0.22
3.966666666666667,-0.325
3.9694444444444446,-0.42
3.9722222222222223,-0.48
3.975,-0.465
3.977777777777778,-0.38
3.9805555555555556,-0.3
3.9833333333333334,-0.31
3.986111111111111,-0.38
3.988888888888889,-0.445
3.9916666666666667,-0.485
3.9944444444444445,-0.5
3.9972222222222222,-0.44
4.0,-0.355
4.002777777777778,-0.35
4.0055555555555555,-0.425
4.008333333333334,-0.53
4.011111111111111,-0.55
4.013888888888889,-0.47
4.016666666666667,-0.375
4.019444444444445,-0.375
4.022222222222222,-0.44
4.025,-0.485
4.027777777777778,-0.45
4.030555555555556,-0.435
4.033333333333333,-0.41
4.036111111111111,-0.37
4.038888888888889,-0.25
4.041666666666667,-0.13
4.044444444444444,-0.085
4.0472222222222225,-0.21
4.05,-0.39
4.052777777777778,-0.525
4.055555555555555,-0.52
4.058333333333334,-0.41
4.061111111111111,-0.275
4.063888888888889,-0.22
4.066666666666666,-0.155
4.069444444444445,-0.065
4.072222222222222,-0.04
4.075,-0.17
4.0777777777777775,-0.36
4.080555555555556,-0.325
4.083333333333333,-0.095
4.086111111111111,0.145
4.088888888888889,0.24
4.091666666666667,0.205
4.094444444444444,0.195
4.097222222222222,0.295
4.1,0.49
4.102777777777778,0.79
4.105555555555555,1.11
4.108333333333333,1.355
4.111111111111111,1.405
4.113888888888889,1.355
4.116666666666666,1.36
4.1194444444444445,1.465
4.122222222222222,1.56
4.125,1.55
4.127777777777778,1.365
4.1305555555555555,1.045
4.133333333333334,0.86
4.136111111111111,0.795
4.138888888888889,0.645
4.141666666666667,0.35
4.144444444444445,0.06
4.147222222222222,-0.13
4.15,-0.215
4.152777777777778,-0.295
4.155555555555556,-0.415
4.158333333333333,-0.515
4.161111111111111,-0.555
4.163888888888889,-0.51
4.166666666666667,-0.45
4.169444444444444,-0.445
4.1722222222222225,-0.53
4.175,-0.6
4.177777777777778,-0.55
4.180555555555555,-0.425
4.183333333333334,-0.365
4.186111111111111,-0.445
4.188888888888889,-0.54
4.191666666666666,-0.56
4.194444444444445,-0.55
4.197222222222222,-0.525
4.2,-0.51
4.2027777777777775,-0.54
4.205555555555556,-0.55
4.208333333333333,-0.565
4.211111111111111,-0.61
4.213888888888889,-0.61
4.216666666666667,-0.545
4.219444444444444,-0.44
4.222222222222222,-0.455
4.225,-0.58
4.227777777777778,-0.685
4.230555555555555,-0.66
4.233333333333333,-0.595
4.236111111111111,-0.585
4.238888888888889,-0.61
4.241666666666666,-0.575
4.2444444444444445,-0.545
4.247222222222222,-0.535
4.25,-0.495
4.252777777777778,-0.415
4.2555555555555555,-0.39
4.258333333333334,-0.4
4.261111111111111,-0.43
4.263888888888889,-0.42
4.266666666666667,-0.385
4.269444444444445,-0.3
4.272222222222222,-0.21
4.275,-0.255
4.277777777777778,-0.36
4.280555555555556,-0.365
4.283333333333333,-0.29
4.286111111111111,-0.285
4.288888888888889,-0.33
4.291666666666667,-0.31
4.294444444444444,-0.2
4.2972222222222225,-0.105
4.3,-0.14
4.302777777777778,-0.23
4.305555555555555,-0.25
4.308333333333334,-0.215
4.311111111111111,-0.17
4.313888888888889,-0.175
4.316666666666666,-0.145
4.319444444444445,-0.055
4.322222222222222,0.01
4.325,0.02
4.3277777777777775,-0.02
4.330555555555556,-0.02
4.333333333333333,-0.04
4.336111111111111,-0.095
4.338888888888889,-0.17
4.341666666666667,-0.165
4.344444444444444,-0.135
4.347222222222222,-0.145
4.35,-0.155
4.352777777777778,-0.125
4.355555555555555,-0.06
4.358333333333333,-0.005
4.361111111111111,-0.04
4.363888888888889,-0.09
4.366666666666666,-0.14
4.3694444444444445,-0.145
4.372222222222222,-0.175
4.375,-0.185
4.377777777777778,-0.155
4.3805555555555555,-0.135
4.383333333333334,-0.145
4.386111111111111,-0.12
4.388888888888889,-0.07
4.391666666666667,-0.025
4.394444444444445,-0.06
4.397222222222222,-0.15
4.4,-0.225
4.402777777777778,-0.26
4.405555555555556,-0.21
4.408333333333333,-0.185
4.411111111111111,-0.16
4.413888888888889,-0.2
4.416666666666667,-0.24
4.419444444444444,-0.235
4.4222222222222225,-0.165
4.425,-0.12
4.427777777777778,-0.105
4.430555555555555,-0.12
4.433333333333334,-0.215
4.436111111111111,-0.275
4.438888888888889,-0.24
4.441666666666666,-0.135
4.444444444444445,-0.115
4.447222222222222,-0.145
4.45,-0.165
4.4527777777777775,-0.14
4.455555555555556,-0.1
4.458333333333333,-0.07
4.461111111111111,-0.12
4.463888888888889,-0.22
4.466666666666667,-0.245
4.469444444444444,-0.15
4.472222222222222,-0.105
4.475,-0.13
4.477777777777778,-0.1
4.480555555555555,-0.03
4.483333333333333,0.045
4.486111111111111,0.095
4.488888888888889,0.12
4.491666666666666,0.1
4.4944444444444445,-0.05
4.497222222222222,-0.265
4.5,-0.33
4.502777777777778,-0.24
4.5055555555555555,-0.17
4.508333333333334,-0.165
4.511111111111111,-0.145
4.513888888888889,-0.08
4.516666666666667,-0.035
4.519444444444445,-0.035
4.522222222222222,-0.075
4.525,-0.15
4.527777777777778,-0.19
4.530555555555556,-0.14
4.533333333333333,-0.08
4.536111111111111,-0.07
4.538888888888889,-0.1
4.541666666666667,-0.1
4.544444444444444,-0.06
4.5472222222222225,-0.005
4.55,-0.02
4.552777777777778,-0.06
4.555555555555555,-0.08
4.558333333333334,-0.075
4.561111111111111,-0.065
4.563888888888889,-0.01
4.566666666666666,0.08
4.569444444444445,0.175
4.572222222222222,0.16
4.575,0.03
4.5777777777777775,-0.055
4.580555555555556,-0.03
4.583333333333333,0.05
4.586111111111111,0.12
4.588888888888889,0.04
4.591666666666667,-0.115
4.594444444444444,-0.145
4.597222222222222,-0.07
4.6,0.015
4.602777777777778,0.085
4.605555555555555,0.075
4.608333333333333,0.035
4.611111111111111,0.04
4.613888888888889,0.085
4.616666666666666,0.125
4.6194444444444445,0.13
4.622222222222222,0.115
4.625,0.035
4.627777777777778,0.005
4.6305555555555555,0.025
4.633333333333334,0.18
4.636111111111111,0.4
4.638888888888889,0.415
4.641666666666667,0.2
4.644444444444445,0.005
4.647222222222222,-0.05
4.65,0.06
4.652777777777778,0.21
4.655555555555556,0.275
4.658333333333333,0.215
4.661111111111111,0.06
4.663888888888889,-0.09
4.666666666666667,-0.085
4.669444444444444,0.02
4.6722222222222225,0.1
4.675,0.145
4.677777777777778,0.125
4.680555555555555,0.03
4.683333333333334,0.0
4.686111111111111,-0.025
4.688888888888889,-0.015
4.691666666666666,-0.02
4.694444444444445,0.0
4.697222222222222,0.04
4.7,0.025
4.7027777777777775,0.015
4.705555555555556,0.0
4.708333333333333,-0.005
4.711111111111111,0.005
4.713888888888889,0.065
4.716666666666667,0.2
4.719444444444444,0.255
4.722222222222222,0.14
4.725,-0.025
4.727777777777778,-0.025
4.730555555555555,0.215
4.733333333333333,0.505
4.736111111111111,0.59
4.738888888888889,0.455
4.741666666666666,0.285
4.7444444444444445,0.265
4.747222222222222,0.355
4.75,0.545
4.752777777777778,0.765
4.7555555555555555,1.06
4.758333333333334,1.395
4.761111111111111,1.645
4.763888888888889,1.84
4.766666666666667,1.925
4.769444444444445,1.965
4.772222222222222,1.965
4.775,1.9
4.777777777777778,1.805
4.780555555555556,1.75
4.783333333333333,1.665
4.786111111111111,1.54
4.788888888888889,1.385
4.791666666666667,1.185
4.794444444444444,0.96
4.7972222222222225,0.625
4.8,0.28
4.802777777777778,0.04
4.805555555555555,-0.055
4.808333333333334,-0.08
4.811111111111111,-0.08
4.813888888888889,-0.1
4.816666666666666,-0.115
4.819444444444445,-0.115
4.822222222222222,-0.15
4.825,-0.155
4.8277777777777775,-0.22
4.830555555555556,-0.235
4.833333333333333,-0.195
4.836111111111111,-0.125
4.838888888888889,-0.1
4.841666666666667,-0.11
4.844444444444444,-0.13
4.847222222222222,-0.175
4.85,-0.22
4.852777777777778,-0.25
4.855555555555555,-0.19
4.858333333333333,-0.06
4.861111111111111,0.05
4.863888888888889,0.025
4.866666666666666,-0.11
4.8694444444444445,-0.27
4.872222222222222,-0.315
4.875,-0.29
4.877777777777778,-0.23
4.8805555555555555,-0.19
4.883333333333334,-0.12
4.886111111111111,-0.07
4.888888888888889,-0.05
4.891666666666667,-0.105
4.894444444444445,-0.2
4.897222222222222,-0.33
4.9,-0.375
4.902777777777778,-0.28
4.905555555555556,-0.14
4.908333333333333,-0.065
4.911111111111111,-0.06
4.913888888888889,-0.015
4.916666666666667,0.055
4.919444444444444,0.01
4.9222222222222225,-0.165
4.925,-0.26
4.927777777777778,-0.225
4.930555555555555,-0.12
4.933333333333334,-0.05
4.936111111111111,0.04
4.938888888888889,0.085
4.941666666666666,0.125
4.944444444444445,0.15
4.947222222222222,0.195
4.95,0.24
4.9527777777777775,0.14
4.955555555555556,-0.01
4.958333333333333,-0.13
4.961111111111111,-0.09
4.963888888888889,0.04
4.966666666666667,0.14
4.969444444444444,0.14
4.972222222222222,0.085
4.975,0.125
4.977777777777778,0.24
4.980555555555555,0.315
4.983333333333333,0.25
4.986111111111111,0.115
4.988888888888889,-0.055
4.991666666666666,-0.09
4.9944444444444445,0.015
4.997222222222222,0.13
5.0,0.245
5.002777777777778,0.365
5.0055555555555555,0.365
5.008333333333334,0.23
5.011111111111111,0.115
5.013888888888889,0.08
5.016666666666667,0.21
5.019444444444445,0.37
5.022222222222222,0.425
5.025,0.4
5.027777777777778,0.43
5.030555555555556,0.505
5.033333333333333,0.455
5.036111111111111,0.265
5.038888888888889,0.12
5.041666666666667,0.085
5.044444444444444,0.09
5.0472222222222225,0.08
5.05,0.055
5.052777777777778,0.03
5.055555555555555,0.06
5.058333333333334,0.095
5.061111111111111,0.075
5.063888888888889,0.075
5.066666666666666,0.165
5.069444444444445,0.305
5.072222222222222,0.365
5.075,0.31
5.0777777777777775,0.185
5.080555555555556,0.14
5.083333333333333,0.165
5.086111111111111,0.175
5.088888888888889,0.06
5.091666666666667,-0.04
5.094444444444444,0.03
5.097222222222222,0.195
5.1,0.285
5.102777777777778,0.265
5.105555555555555,0.21
5.108333333333333,0.215
5.111111111111111,0.235
5.113888888888889,0.265
5.116666666666666,0.28
5.1194444444444445,0.275
5.122222222222222,0.265
5.125,0.255
5.127777777777778,0.24
5.1305555555555555,0.225
5.133333333333334,0.29
5.136111111111111,0.46
5.138888888888889,0.615
5.141666666666667,0.665
5.144444444444445,0.58
5.147222222222222,0.37
5.15,0.125
5.152777777777778,-0.02
5.155555555555556,-0.005
5.158333333333333,0.025
5.161111111111111,0.06
5.163888888888889,0.115
5.166666666666667,0.175
5.169444444444444,0.3
5.1722222222222225,0.385
5.175,0.405
5.177777777777778,0.46
5.180555555555555,0.58
5.183333333333334,0.725
5.186111111111111,0.88
5.188888888888889,0.91
5.191666666666666,0.855
5.194444444444445,0.855
5.197222222222222,1.065
5.2,1.36
5.2027777777777775,1.575
5.205555555555556,1.62
5.208333333333333,1.445
5.211111111111111,1.22
5.213888888888889,1.17
5.216666666666667,1.25
5.219444444444444,1.24
5.222222222222222,0.96
5.225,0.52
5.227777777777778,0.26
5.230555555555555,0.25
5.233333333333333,0.29
5.236111111111111,0.2
5.238888888888889,0.0
5.241666666666666,-0.115
5.2444444444444445,-0.075
5.247222222222222,-0.04
5.25,-0.015
5.252777777777778,-0.02
5.2555555555555555,-0.005
5.258333333333334,0.03
5.261111111111111,0.045
5.263888888888889,-0.005
5.266666666666667,-0.085
5.269444444444445,-0.09
5.272222222222222,-0.065
5.275,-0.025
5.277777777777778,-0.02
5.280555555555556,-0.015
5.283333333333333,0.025
5.286111111111111,0.09
5.288888888888889,0.135
5.291666666666667,0.125
5.294444444444444,0.055
5.2972222222222225,-0.015
5.3,-0.015
5.302777777777778,0.005
5.305555555555555,0.035
5.308333333333334,0.06
5.311111111111111,0.115
5.313888888888889,0.23
5.316666666666666,0.325
5.319444444444445,0.37
5.322222222222222,0.35
5.325,0.365
5.3277777777777775,0.445
5.330555555555556,0.61
5.333333333333333,0.72
5.336111111111111,0.625
5.338888888888889,0.44
5.341666666666667,0.58
5.344444444444444,0.985
5.347222222222222,0.955
5.35,0.315
5.352777777777778,-0.325
5.355555555555555,-0.33
5.358333333333333,0.04
5.361111111111111,0.36
5.363888888888889,0.485
5.366666666666666,0.495
5.3694444444444445,0.42
5.372222222222222,0.39
5.375,0.42
5.377777777777778,0.505
5.3805555555555555,0.56
5.383333333333334,0.515
5.386111111111111,0.46
5.388888888888889,0.45
5.391666666666667,0.435
5.394444444444445,0.41
5.397222222222222,0.415
5.4,0.405
5.402777777777778,0.385
5.405555555555556,0.39
5.408333333333333,0.37
5.411111111111111,0.35
5.413888888888889,0.32
5.416666666666667,0.31
5.419444444444444,0.305
5.4222222222222225,0.245
5.425,0.17
5.427777777777778,0.185
5.430555555555555,0.23
5.433333333333334,0.24
5.436111111111111,0.25
5.438888888888889,0.225
5.441666666666666,0.19
5.444444444444445,0.165
5.447222222222222,0.18
5.45,0.21
5.4527777777777775,0.215
5.455555555555556,0.21
5.458333333333333,0.205
5.461111111111111,0.22
5.463888888888889,0.27
5.466666666666667,0.33
5.469444444444444,0.435
5.472222222222222,0.485
5.475,0.455
5.477777777777778,0.36
5.480555555555555,0.32
5.483333333333333,0.36
5.486111111111111,0.385
5.488888888888889,0.295
5.491666666666666,0.265
5.4944444444444445,0.33
5.497222222222222,0.4
5.5,0.32
5.502777777777778,0.085
5.5055555555555555,-0.1
5.508333333333334,-0.13
5.511111111111111,-0.035
5.513888888888889,0.085
5.516666666666667,0.16
5.519444444444445,0.185
5.522222222222222,0.165
5.525,0.12
5.527777777777778,0.125
5.530555555555556,0.2
5.533333333333333,0.28
5.536111111111111,0.275
5.538888888888889,0.235
5.541666666666667,0.195
5.544444444444444,0.185
5.5472222222222225,0.205
5.55,0.285
5.552777777777778,0.345
5.555555555555555,0.36
5.558333333333334,0.36
5.561111111111111,0.43
5.563888888888889,0.545
5.566666666666666,0.63
5.569444444444445,0.55
5.572222222222222,0.3
5.575,0.08
5.5777777777777775,0.025
5.580555555555556,0.08
5.583333333333333,0.14
5.586111111111111,0.19
5.588888888888889,0.165
5.591666666666667,0.105
5.594444444444444,0.1
5.597222222222222,0.2
5.6,0.385
5.602777777777778,0.515
5.605555555555555,0.53
5.608333333333333,0.385
5.611111111111111,0.105
5.613888888888889,-0.15
5.616666666666666,-0.235
5.6194444444444445,-0.1
5.622222222222222,0.125
5.625,0.26
5.627777777777778,0.32
5.6305555555555555,0.315
5.633333333333334,0.325
5.636111111111111,0.335
5.638888888888889,0.3
5.641666666666667,0.23
5.644444444444445,0.11
5.647222222222222,0.04
5.65,0.015
5.652777777777778,0.125
5.655555555555556,0.295
5.658333333333333,0.5
5.661111111111111,0.63
5.663888888888889,0.615
5.666666666666667,0.46
5.669444444444444,0.135
5.6722222222222225,-0.125
5.675,-0.13
5.677777777777778,0.0
5.680555555555555,0.065
5.683333333333334,0.075
5.686111111111111,0.075
5.688888888888889,0.135
5.691666666666666,0.175
5.694444444444445,0.15
5.697222222222222,0.13
5.7,0.19
5.7027777777777775,0.325
5.705555555555556,0.445
5.708333333333333,0.42
5.711111111111111,0.205
5.713888888888889,-0.07
5.716666666666667,-0.2
5.719444444444444,-0.115
5.722222222222222,0.04
5.725,0.16
5.727777777777778,0.2
5.730555555555555,0.245
5.733333333333333,0.385
5.736111111111111,0.625
5.738888888888889,0.84
5.741666666666666,0.715
5.7444444444444445,0.245
5.747222222222222,-0.165
5.75,-0.27
5.752777777777778,-0.155
5.7555555555555555,-0.115
5.758333333333334,-0.165
5.761111111111111,-0.155
5.763888888888889,-0.02
5.766666666666667,0.19
5.769444444444445,0.41
5.772222222222222,0.525
5.775,0.485
5.777777777777778,0.235
5.780555555555556,-0.08
5.783333333333333,-0.24
5.786111111111111,-0.125
5.788888888888889,0.15
5.791666666666667,0.36
5.794444444444444,0.445
5.7972222222222225,0.535
5.8,0.665
5.802777777777778,0.8
5.805555555555555,0.81
5.808333333333334,0.795
5.811111111111111,0.79
5.813888888888889,0.79
5.816666666666666,0.79
5.819444444444445,0.85
5.822222222222222,1.035
5.825,1.245
5.8277777777777775,1.35
5.830555555555556,1.42
5.833333333333333,1.485
5.836111111111111,1.545
5.838888888888889,1.53
5.841666666666667,1.46
5.844444444444444,1.335
5.847222222222222,1.18
5.85,1.08
5.852777777777778,1.005
5.855555555555555,0.88
5.858333333333333,0.725
5.861111111111111,0.535
5.863888888888889,0.365
5.866666666666666,0.255
5.8694444444444445,0.185
5.872222222222222,0.075
5.875,0.0
5.877777777777778,0.01
5.8805555555555555,0.035
5.883333333333334,-0.025
5.886111111111111,-0.065
5.888888888888889,-0.055
5.891666666666667,0.005
5.894444444444445,0.01
5.897222222222222,-0.13
5.9,-0.25
5.902777777777778,-0.23
5.905555555555556,-0.165
5.908333333333333,-0.175
5.911111111111111,-0.31
5.913888888888889,-0.44
5.916666666666667,-0.445
5.919444444444444,-0.38
5.9222222222222225,-0.335
5.925,-0.33
5.927777777777778,-0.33
5.930555555555555,-0.28
5.933333333333334,-0.195
5.936111111111111,-0.115
5.938888888888889,-0.06
5.941666666666666,-0.075
5.944444444444445,-0.14
5.947222222222222,-0.2
5.95,-0.185
5.9527777777777775,-0.07
5.955555555555556,-0.04
5.958333333333333,-0.115
5.961111111111111,-0.23
5.963888888888889,-0.285
5.966666666666667,-0.22
5.969444444444444,-0.11
5.972222222222222,-0.01
5.975,0.055
5.977777777777778,0.035
5.980555555555555,-0.075
5.983333333333333,-0.19
5.986111111111111,-0.235
5.988888888888889,-0.19
5.991666666666666,-0.125
5.9944444444444445,-0.13
5.997222222222222,-0.16
6.0,-0.13
6.002777777777778,-0.02
6.0055555555555555,-0.045
6.008333333333334,-0.27
6.011111111111111,-0.545
6.013888888888889,-0.58
6.016666666666667,-0.44
6.019444444444445,-0.295
6.022222222222222,-0.185
6.025,-0.11
6.027777777777778,-0.105
6.030555555555556,-0.15
6.033333333333333,-0.205
6.036111111111111,-0.225
6.038888888888889,-0.195
6.041666666666667,-0.13
6.044444444444444,-0.085
6.0472222222222225,-0.035
6.05,-0.01
6.052777777777778,-0.015
6.055555555555555,-0.035
6.058333333333334,-0.035
6.061111111111111,0.03
6.063888888888889,0.075
6.066666666666666,0.055
6.069444444444445,0.035
6.072222222222222,0.055
6.075,0.065
6.0777777777777775,0.05
6.080555555555556,0.025
6.083333333333333,0.0
6.086111111111111,0.045
6.088888888888889,0.115
6.091666666666667,0.175
6.094444444444444,0.22
6.097222222222222,0.28
6.1,0.295
6.102777777777778,0.18
6.105555555555555,0.035
6.108333333333333,-0.07
6.111111111111111,-0.045
6.113888888888889,0.15
6.116666666666666,0.44
6.1194444444444445,0.565
6.122222222222222,0.395
6.125,0.09
6.127777777777778,-0.075
6.1305555555555555,-0.13
6.133333333333334,-0.115
6.136111111111111,-0.17
6.138888888888889,-0.16
6.141666666666667,-0.115
6.144444444444445,-0.02
6.147222222222222,0.075
6.15,0.14
6.152777777777778,0.165
6.155555555555556,0.11
6.158333333333333,-0.025
6.161111111111111,-0.14
6.163888888888889,-0.145
6.166666666666667,-0.08
6.169444444444444,0.0
6.1722222222222225,0.075
6.175,0.14
6.177777777777778,0.24
6.180555555555555,0.38
6.183333333333334,0.37
6.186111111111111,0.19
6.188888888888889,-0.08
6.191666666666666,-0.135
6.194444444444445,0.13
6.197222222222222,0.455
6.2,0.59
6.2027777777777775,0.405
6.205555555555556,0.105
6.208333333333333,-0.075
6.211111111111111,-0.045
6.213888888888889,0.08
6.216666666666667,0.185
6.219444444444444,0.18
6.222222222222222,0.06
6.225,-0.065
6.227777777777778,-0.1
6.230555555555555,-0.14
6.233333333333333,-0.315
6.236111111111111,-0.575
6.238888888888889,-0.79
6.241666666666666,-0.895
6.2444444444444445,-0.93
6.247222222222222,-0.99
6.25,-1.065
6.252777777777778,-1.115
6.2555555555555555,-1.15
6.258333333333334,-1.055
6.261111111111111,-0.855
6.263888888888889,-0.625
6.266666666666667,-0.43
6.269444444444445,-0.355
6.272222222222222,-0.46
6.275,-0.605
6.277777777777778,-0.705
6.280555555555556,-0.655
6.283333333333333,-0.46
6.286111111111111,-0.24
6.288888888888889,-0.085
6.291666666666667,0.105
6.294444444444444,0.32
6.2972222222222225,0.495
6.3,0.445
6.302777777777778,0.28
6.305555555555555,0.18
6.308333333333334,0.2
6.311111111111111,0.18
6.313888888888889,0.065
6.316666666666666,-0.09
6.319444444444445,-0.275
6.322222222222222,-0.405
6.325,-0.4
6.3277777777777775,-0.315
6.330555555555556,-0.2
6.333333333333333,-0.07
6.336111111111111,0.04
6.338888888888889,0.1
6.341666666666667,0.085
6.344444444444444,0.03
6.347222222222222,0.04
6.35,0.12
6.352777777777778,0.1
6.355555555555555,-0.005
6.358333333333333,-0.115
6.361111111111111,-0.16
6.363888888888889,-0.155
6.366666666666666,-0.115
6.3694444444444445,0.0
6.372222222222222,0.165
6.375,0.25
6.377777777777778,0.225
6.3805555555555555,0.135
6.383333333333334,0.065
6.386111111111111,0.035
6.388888888888889,0.05
6.391666666666667,0.16
6.394444444444445,0.315
6.397222222222222,0.455
6.4,0.545
6.402777777777778,0.615
6.405555555555556,0.575
6.408333333333333,0.485
6.411111111111111,0.39
6.413888888888889,0.38
6.416666666666667,0.435
6.419444444444444,0.53
6.4222222222222225,0.605
6.425,0.645
6.427777777777778,0.635
6.430555555555555,0.595
6.433333333333334,0.54
6.436111111111111,0.56
6.438888888888889,0.705
6.441666666666666,0.94
6.444444444444445,1.07
6.447222222222222,1.085
6.45,1.005
6.4527777777777775,0.895
6.455555555555556,0.78
6.458333333333333,0.615
6.461111111111111,0.54
6.463888888888889,0.54
6.466666666666667,0.64
6.469444444444444,0.71
6.472222222222222,0.67
6.475,0.585
6.477777777777778,0.535
6.480555555555555,0.52
6.483333333333333,0.535
6.486111111111111,0.555
6.488888888888889,0.565
6.491666666666666,0.55
6.4944444444444445,0.47
6.497222222222222,0.295
6.5,0.14
6.502777777777778,0.16
6.5055555555555555,0.23
6.508333333333334,0.28
6.511111111111111,0.28
6.513888888888889,0.325
6.516666666666667,0.34
6.519444444444445,0.3
6.522222222222222,0.175
6.525,0.08
6.527777777777778,0.05
6.530555555555556,0.04
6.533333333333333,0.15
6.536111111111111,0.34
6.538888888888889,0.44
6.541666666666667,0.315
6.544444444444444,0.085
6.5472222222222225,-0.13
6.55,-0.19
6.552777777777778,-0.2
6.555555555555555,-0.255
6.558333333333334,-0.345
6.561111111111111,-0.44
6.563888888888889,-0.565
6.566666666666666,-0.74
6.569444444444445,-0.965
6.572222222222222,-1.19
6.575,-1.37
6.5777777777777775,-1.43
6.580555555555556,-1.4
6.583333333333333,-1.325
6.586111111111111,-1.155
6.588888888888889,-0.875
6.591666666666667,-0.58
6.594444444444444,-0.4
6.597222222222222,-0.28
6.6,-0.14
6.602777777777778,-0.02
6.605555555555555,0.04
6.608333333333333,0.04
6.611111111111111,0.005
6.613888888888889,-0.065
6.616666666666666,-0.14
6.6194444444444445,-0.185
6.622222222222222,-0.235
6.625,-0.315
6.627777777777778,-0.365
6.6305555555555555,-0.31
6.633333333333334,-0.245
6.636111111111111,-0.2
6.638888888888889,-0.17
6.641666666666667,-0.11
6.644444444444445,-0.035
6.647222222222222,0.01
6.65,-0.025
6.652777777777778,-0.115
6.655555555555556,-0.17
6.658333333333333,-0.155
6.661111111111111,-0.16
6.663888888888889,-0.23
6.666666666666667,-0.335
6.669444444444444,-0.34
6.6722222222222225,-0.275
6.675,-0.22
6.677777777777778,-0.27
6.680555555555555,-0.365
6.683333333333334,-0.38
6.686111111111111,-0.315
6.688888888888889,-0.2
6.691666666666666,-0.135
6.694444444444445,-0.14
6.697222222222222,-0.165
6.7,-0.175
6.7027777777777775,-0.105
6.705555555555556,-0.05
6.708333333333333,-0.045
6.711111111111111,-0.115
6.713888888888889,-0.135
6.716666666666667,-0.025
6.719444444444444,0.205
6.722222222222222,0.395
6.725,0.405
6.727777777777778,0.235
6.730555555555555,0.025
6.733333333333333,-0.125
6.736111111111111,-0.18
6.738888888888889,-0.205
6.741666666666666,-0.16
6.7444444444444445,-0.105
6.747222222222222,-0.04
6.75,0.025
6.752777777777778,0.075
6.7555555555555555,0.18
6.758333333333334,0.295
6.761111111111111,0.33
6.763888888888889,0.27
6.766666666666667,0.22
6.769444444444445,0.2
6.772222222222222,0.255
6.775,0.28
6.777777777777778,0.3
6.780555555555556,0.345
6.783333333333333,0.39
6.786111111111111,0.41
6.788888888888889,0.395
6.791666666666667,0.45
6.794444444444444,0.535
6.7972222222222225,0.605
6.8,0.575
6.802777777777778,0.49
6.805555555555555,0.315
6.808333333333334,0.105
6.811111111111111,-0.015
6.813888888888889,0.025
6.816666666666666,0.195
6.819444444444445,0.315
6.822222222222222,0.305
6.825,0.19
6.8277777777777775,0.11
6.830555555555556,0.08
6.833333333333333,0.09
6.836111111111111,0.095
6.838888888888889,-0.03
6.841666666666667,-0.24
6.844444444444444,-0.315
6.847222222222222,-0.225
6.85,-0.105
6.852777777777778,-0.04
6.855555555555555,-0.025
6.858333333333333,-0.035
6.861111111111111,-0.035
6.863888888888889,-0.015
6.866666666666666,0.005
6.8694444444444445,0.015
6.872222222222222,0.015
6.875,0.03
6.877777777777778,0.07
6.8805555555555555,0.115
6.883333333333334,0.135
6.886111111111111,0.09
6.888888888888889,0.035
6.891666666666667,-0.02
6.894444444444445,-0.04
6.897222222222222,-0.05
6.9,-0.035
6.902777777777778,-0.02
6.905555555555556,-0.08
6.908333333333333,-0.215
6.911111111111111,-0.335
6.913888888888889,-0.31
6.916666666666667,-0.155
6.919444444444444,0.02
6.9222222222222225,0.095
6.925,0.12
6.927777777777778,0.115
6.930555555555555,0.075
6.933333333333334,0.02
6.936111111111111,-0.035
6.938888888888889,-0.125
6.941666666666666,-0.195
6.944444444444445,-0.195
6.947222222222222,-0.065
6.95,0.135
6.9527777777777775,0.295
6.955555555555556,0.29
6.958333333333333,0.205
6.961111111111111,0.175
6.963888888888889,0.22
6.966666666666667,0.28
6.969444444444444,0.39
6.972222222222222,0.53
6.975,0.645
6.977777777777778,0.66
6.980555555555555,0.66
6.983333333333333,0.705
6.986111111111111,0.81
6.988888888888889,0.89
6.991666666666666,1.0
6.9944444444444445,1.095
6.997222222222222,1.1
7.0,0.95
7.002777777777778,0.705
7.0055555555555555,0.545
7.008333333333334,0.53
7.011111111111111,0.51
7.013888888888889,0.42
7.016666666666667,0.33
7.019444444444445,0.3
7.022222222222222,0.275
7.025,0.125
7.027777777777778,-0.175
7.030555555555556,-0.455
7.033333333333333,-0.505
7.036111111111111,-0.27
7.038888888888889,0.065
7.041666666666667,0.205
7.044444444444444,0.02
7.0472222222222225,-0.36
7.05,-0.66
7.052777777777778,-0.75
7.055555555555555,-0.68
7.058333333333334,-0.55
7.061111111111111,-0.425
7.063888888888889,-0.36
7.066666666666666,-0.395
7.069444444444445,-0.505
7.072222222222222,-0.625
7.075,-0.65
7.0777777777777775,-0.59
7.080555555555556,-0.47
7.083333333333333,-0.385
7.086111111111111,-0.335
7.088888888888889,-0.345
7.091666666666667,-0.425
7.094444444444444,-0.505
7.097222222222222,-0.54
7.1,-0.5
7.102777777777778,-0.425
7.105555555555555,-0.4
7.108333333333333,-0.37
7.111111111111111,-0.355
7.113888888888889,-0.28
7.116666666666666,-0.155
7.1194444444444445,-0.065
7.122222222222222,-0.035
7.125,-0.005
7.127777777777778,0.0
7.1305555555555555,-0.065
7.133333333333334,-0.21
7.136111111111111,-0.43
7.138888888888889,-0.61
7.141666666666667,-0.675
7.144444444444445,-0.575
7.147222222222222,-0.395
7.15,-0.25
7.152777777777778,-0.295
7.155555555555556,-0.445
7.158333333333333,-0.55
7.161111111111111,-0.595
7.163888888888889,-0.565
7.166666666666667,-0.45
7.169444444444444,-0.2
7.1722222222222225,0.01
7.175,0.065
7.177777777777778,-0.035
7.180555555555555,-0.21
7.183333333333334,-0.31
7.186111111111111,-0.31
7.188888888888889,-0.245
7.191666666666666,-0.17
7.194444444444445,-0.095
7.197222222222222,0.005
7.2,0.04
7.2027777777777775,-0.02
7.205555555555556,-0.14
7.208333333333333,-0.255
7.211111111111111,-0.265
7.213888888888889,-0.185
7.216666666666667,-0.135
7.219444444444444,-0.13
7.222222222222222,-0.145
7.225,-0.11
7.227777777777778,-0.04
7.230555555555555,0.02
7.233333333333333,0.055
7.236111111111111,0.085
7.238888888888889,0.095
7.241666666666666,0.05
7.2444444444444445,0.0
7.247222222222222,-0.04
7.25,-0.005
7.252777777777778,0.11
7.2555555555555555,0.175
7.258333333333334,0.15
7.261111111111111,0.075
7.263888888888889,0.04
7.266666666666667,-0.015
7.269444444444445,-0.03
7.272222222222222,-0.06
7.275,-0.1
7.277777777777778,-0.2
7.280555555555556,-0.325
7.283333333333333,-0.405
7.286111111111111,-0.365
7.288888888888889,-0.255
7.291666666666667,-0.16
7.294444444444444,-0.115
7.2972222222222225,-0.065
7.3,0.015
7.302777777777778,0.085
7.305555555555555,0.075
7.308333333333334,-0.005
7.311111111111111,-0.075
7.313888888888889,-0.11
7.316666666666666,-0.09
7.319444444444445,-0.075
7.322222222222222,-0.095
7.325,-0.075
7.3277777777777775,0.015
7.330555555555556,0.155
7.333333333333333,0.235
7.336111111111111,0.14
7.338888888888889,-0.04
7.341666666666667,-0.18
7.344444444444444,-0.105
7.347222222222222,0.025
7.35,0.06
7.352777777777778,-0.065
7.355555555555555,-0.215
7.358333333333333,-0.205
7.361111111111111,-0.015
7.363888888888889,0.29
7.366666666666666,0.53
7.3694444444444445,0.64
7.372222222222222,0.725
7.375,0.835
7.377777777777778,0.955
7.3805555555555555,1.06
7.383333333333334,1.17
7.386111111111111,1.33
7.388888888888889,1.37
7.391666666666667,1.295
7.394444444444445,1.105
7.397222222222222,0.9
7.4,0.665
7.402777777777778,0.345
7.405555555555556,0.065
7.408333333333333,0.0
7.411111111111111,0.075
7.413888888888889,0.135
7.416666666666667,0.105
7.419444444444444,0.065
7.4222222222222225,0.065
7.425,0.075
7.427777777777778,-0.025
7.430555555555555,-0.23
7.433333333333334,-0.45
7.436111111111111,-0.535
7.438888888888889,-0.495
7.441666666666666,-0.48
7.444444444444445,-0.565
7.447222222222222,-0.65
7.45,-0.675
7.4527777777777775,-0.585
7.455555555555556,-0.52
7.458333333333333,-0.47
7.461111111111111,-0.505
7.463888888888889,-0.54
7.466666666666667,-0.53
7.469444444444444,-0.52
7.472222222222222,-0.51
7.475,-0.475
7.477777777777778,-0.46
7.480555555555555,-0.465
7.483333333333333,-0.48
7.486111111111111,-0.46
7.488888888888889,-0.41
7.491666666666666,-0.35
7.4944444444444445,-0.28
7.497222222222222,-0.195
7.5,-0.185
7.502777777777778,-0.295
7.5055555555555555,-0.395
7.508333333333334,-0.375
7.511111111111111,-0.295
7.513888888888889,-0.2
7.516666666666667,-0.225
7.519444444444445,-0.38
7.522222222222222,-0.555
7.525,-0.645
7.527777777777778,-0.6
7.530555555555556,-0.515
7.533333333333333,-0.45
7.536111111111111,-0.395
7.538888888888889,-0.35
7.541666666666667,-0.31
7.544444444444444,-0.325
7.5472222222222225,-0.315
7.55,-0.31
7.552777777777778,-0.29
7.555555555555555,-0.27
7.558333333333334,-0.235
7.561111111111111,-0.18
7.563888888888889,-0.14
7.566666666666666,-0.125
7.569444444444445,-0.13
7.572222222222222,-0.13
7.575,-0.135
7.5777777777777775,-0.14
7.580555555555556,-0.115
7.583333333333333,-0.035
7.586111111111111,0.055
7.588888888888889,0.115
7.591666666666667,0.085
7.594444444444444,0.0
7.597222222222222,-0.065
7.6,-0.125
7.602777777777778,-0.195
7.605555555555555,-0.23
7.608333333333333,-0.18
7.611111111111111,-0.085
7.613888888888889,0.015
7.616666666666666,0.065
7.6194444444444445,0.06
7.622222222222222,0.025
7.625,0.01
7.627777777777778,-0.005
7.6305555555555555,0.045
7.633333333333334,0.13
7.636111111111111,0.09
7.638888888888889,-0.08
7.641666666666667,-0.28
7.644444444444445,-0.35
7.647222222222222,-0.305
7.65,-0.235
7.652777777777778,-0.25
7.655555555555556,-0.31
7.658333333333333,-0.3
7.661111111111111,-0.225
7.663888888888889,-0.125
7.666666666666667,-0.085
7.669444444444444,-0.055
7.6722222222222225,-0.035
7.675,-0.04
7.677777777777778,-0.065
7.680555555555555,-0.05
7.683333333333334,-0.005
7.686111111111111,0.015
7.688888888888889,-0.025
7.691666666666666,-0.095
7.694444444444445,-0.105
7.697222222222222,0.01
7.7,0.145
7.7027777777777775,0.23
7.705555555555556,0.25
7.708333333333333,0.21
7.711111111111111,0.165
7.713888888888889,0.065
7.716666666666667,-0.05
7.719444444444444,-0.13
7.722222222222222,-0.18
7.725,-0.16
7.727777777777778,-0.135
7.730555555555555,-0.03
7.733333333333333,0.205
7.736111111111111,0.49
7.738888888888889,0.705
7.741666666666666,0.83
7.7444444444444445,0.885
7.747222222222222,0.98
7.75,1.1
7.752777777777778,1.205
7.7555555555555555,1.29
7.758333333333334,1.295
7.761111111111111,1.175
7.763888888888889,1.015
7.766666666666667,0.935
7.769444444444445,0.87
7.772222222222222,0.7
7.775,0.34
7.777777777777778,-0.095
7.780555555555556,-0.34
7.783333333333333,-0.37
7.786111111111111,-0.31
7.788888888888889,-0.31
7.791666666666667,-0.37
7.794444444444444,-0.46
7.7972222222222225,-0.445
7.8,-0.41
7.802777777777778,-0.37
7.805555555555555,-0.33
7.808333333333334,-0.305
7.811111111111111,-0.35
7.813888888888889,-0.48
7.816666666666666,-0.555
7.819444444444445,-0.51
7.822222222222222,-0.36
7.825,-0.275
7.8277777777777775,-0.335
7.830555555555556,-0.58
7.833333333333333,-0.89
7.836111111111111,-0.96
7.838888888888889,-0.725
7.841666666666667,-0.42
7.844444444444444,-0.33
7.847222222222222,-0.46
7.85,-0.48
7.852777777777778,-0.375
7.855555555555555,-0.425
7.858333333333333,-0.65
7.861111111111111,-0.82
7.863888888888889,-0.8
7.866666666666666,-0.645
7.8694444444444445,-0.5
7.872222222222222,-0.475
7.875,-0.54
7.877777777777778,-0.555
7.8805555555555555,-0.49
7.883333333333334,-0.41
7.886111111111111,-0.425
7.888888888888889,-0.505
7.891666666666667,-0.55
7.894444444444445,-0.635
7.897222222222222,-0.715
7.9,-0.66
7.902777777777778,-0.56
7.905555555555556,-0.52
7.908333333333333,-0.54
7.911111111111111,-0.585
7.913888888888889,-0.53
7.916666666666667,-0.39
7.919444444444444,-0.2
7.9222222222222225,-0.11
7.925,-0.19
7.927777777777778,-0.375
7.930555555555555,-0.515
7.933333333333334,-0.545
7.936111111111111,-0.46
7.938888888888889,-0.44
7.941666666666666,-0.455
7.944444444444445,-0.4
7.947222222222222,-0.315
7.95,-0.225
7.9527777777777775,-0.185
7.955555555555556,-0.265
7.958333333333333,-0.365
7.961111111111111,-0.415
7.963888888888889,-0.285
7.966666666666667,-0.055
7.969444444444444,0.085
7.972222222222222,-0.03
7.975,-0.18
7.977777777777778,-0.18
7.980555555555555,-0.075
7.983333333333333,0.0
7.986111111111111,0.075
7.988888888888889,0.065
7.991666666666666,-0.08
7.9944444444444445,-0.285
7.997222222222222,-0.435
8.0,-0.39
8.002777777777778,-0.165
8.005555555555556,-0.03
8.008333333333333,-0.165
8.011111111111111,-0.395
8.01388888888889,-0.46
8.016666666666667,-0.37
8.019444444444444,-0.275
8.022222222222222,-0.28
8.025,-0.32
8.027777777777779,-0.31
8.030555555555555,-0.2
8.033333333333333,-0.12
8.036111111111111,-0.13
8.03888888888889,-0.185
8.041666666666666,-0.22
8.044444444444444,-0.17
8.047222222222222,-0.1
8.05,-0.025
8.052777777777777,-0.045
8.055555555555555,-0.295
8.058333333333334,-0.595
8.061111111111112,-0.72
8.063888888888888,-0.535
8.066666666666666,-0.27
8.069444444444445,-0.115
8.072222222222223,-0.145
8.075,-0.3
8.077777777777778,-0.475
8.080555555555556,-0.51
8.083333333333334,-0.435
8.08611111111111,-0.34
8.088888888888889,-0.305
8.091666666666667,-0.305
8.094444444444445,-0.255
8.097222222222221,-0.12
8.1,-0.015
8.102777777777778,-0.01
8.105555555555556,-0.11
8.108333333333333,-0.2
8.11111111111111,-0.245
8.113888888888889,-0.15
8.116666666666667,0.085
8.119444444444444,0.285
8.122222222222222,0.35
8.125,0.38
8.127777777777778,0.5
8.130555555555556,0.7
8.133333333333333,0.87
8.136111111111111,1.01
8.13888888888889,1.155
8.141666666666667,1.28
8.144444444444444,1.315
8.147222222222222,1.34
8.15,1.33
8.152777777777779,1.23
8.155555555555555,1.065
8.158333333333333,0.95
8.161111111111111,0.9
8.16388888888889,0.8
8.166666666666666,0.495
8.169444444444444,0.005
8.172222222222222,-0.44
8.175,-0.665
8.177777777777777,-0.66
8.180555555555555,-0.575
8.183333333333334,-0.55
8.186111111111112,-0.58
8.188888888888888,-0.675
8.191666666666666,-0.78
8.194444444444445,-0.89
8.197222222222223,-0.99
8.2,-1.025
8.202777777777778,-0.97
8.205555555555556,-0.87
8.208333333333334,-0.81
8.21111111111111,-0.795
8.213888888888889,-0.775
8.216666666666667,-0.765
8.219444444444445,-0.76
8.222222222222221,-0.81
8.225,-0.85
8.227777777777778,-0.89
8.230555555555556,-0.905
8.233333333333333,-0.895
8.23611111111111,-0.85
8.238888888888889,-0.775
8.241666666666667,-0.72
8.244444444444444,-0.68
8.247222222222222,-0.675
8.25,-0.745
8.252777777777778,-0.875
8.255555555555556,-0.905
8.258333333333333,-0.765
8.261111111111111,-0.475
8.26388888888889,-0.32
8.266666666666667,-0.5
8.269444444444444,-0.885
8.272222222222222,-1.15
8.275,-1.09
8.277777777777779,-0.875
8.280555555555555,-0.675
8.283333333333333,-0.635
8.286111111111111,-0.67
8.28888888888889,-0.705
8.291666666666666,-0.725
8.294444444444444,-0.835
8.297222222222222,-0.945
8.3,-0.99
8.302777777777777,-0.975
8.305555555555555,-0.875
8.308333333333334,-0.775
8.311111111111112,-0.745
8.313888888888888,-0.735
8.316666666666666,-0.71
8.319444444444445,-0.665
8.322222222222223,-0.62
8.325,-0.61
8.327777777777778,-0.58
8.330555555555556,-0.475
8.333333333333334,-0.305
8.33611111111111,-0.215
8.338888888888889,-0.355
8.341666666666667,-0.57
8.344444444444445,-0.695
8.347222222222221,-0.69
8.35,-0.69
8.352777777777778,-0.715
8.355555555555556,-0.635
8.358333333333333,-0.395
8.36111111111111,-0.23
8.363888888888889,-0.315
8.366666666666667,-0.49
8.369444444444444,-0.575
8.372222222222222,-0.58
8.375,-0.545
8.377777777777778,-0.535
8.380555555555556,-0.495
8.383333333333333,-0.46
8.386111111111111,-0.465
8.38888888888889,-0.56
8.391666666666667,-0.655
8.394444444444444,-0.685
8.397222222222222,-0.64
8.4,-0.6
8.402777777777779,-0.6
8.405555555555555,-0.615
8.408333333333333,-0.625
8.411111111111111,-0.625
8.41388888888889,-0.595
8.416666666666666,-0.56
8.419444444444444,-0.53
8.422222222222222,-0.535
8.425,-0.555
8.427777777777777,-0.54
8.430555555555555,-0.46
8.433333333333334,-0.33
8.436111111111112,-0.285
8.438888888888888,-0.43
8.441666666666666,-0.69
8.444444444444445,-0.905
8.447222222222223,-0.975
8.45,-0.875
8.452777777777778,-0.735
8.455555555555556,-0.66
8.458333333333334,-0.63
8.46111111111111,-0.59
8.463888888888889,-0.5
8.466666666666667,-0.42
8.469444444444445,-0.41
8.472222222222221,-0.52
8.475,-0.62
8.477777777777778,-0.685
8.480555555555556,-0.625
8.483333333333333,-0.53
8.48611111111111,-0.555
8.488888888888889,-0.665
8.491666666666667,-0.815
8.494444444444444,-0.885
8.497222222222222,-0.895
8.5,-0.82
8.502777777777778,-0.72
8.505555555555556,-0.665
8.508333333333333,-0.635
8.511111111111111,-0.64
8.51388888888889,-0.63
8.516666666666667,-0.595
8.519444444444444,-0.57
8.522222222222222,-0.565
8.525,-0.575
8.527777777777779,-0.595
8.530555555555555,-0.6
8.533333333333333,-0.585
8.536111111111111,-0.575
8.53888888888889,-0.57
8.541666666666666,-0.585
8.544444444444444,-0.575
8.547222222222222,-0.555
8.55,-0.52
8.552777777777777,-0.5
8.555555555555555,-0.49
8.558333333333334,-0.45
8.561111111111112,-0.415
8.563888888888888,-0.435
8.566666666666666,-0.58
8.569444444444445,-0.715
8.572222222222223,-0.765
8.575,-0.735
8.577777777777778,-0.69
8.580555555555556,-0.69
8.583333333333334,-0.715
8.58611111111111,-0.63
8.588888888888889,-0.53
8.591666666666667,-0.485
8.594444444444445,-0.59
8.597222222222221,-0.78
8.6,-0.86
8.602777777777778,-0.835
8.605555555555556,-0.75
8.608333333333333,-0.67
8.61111111111111,-0.635
8.613888888888889,-0.63
8.616666666666667,-0.63
8.619444444444444,-0.66
8.622222222222222,-0.675
8.625,-0.63
8.627777777777778,-0.575
8.630555555555556,-0.575
8.633333333333333,-0.58
8.636111111111111,-0.52
8.63888888888889,-0.41
8.641666666666667,-0.305
8.644444444444444,-0.265
8.647222222222222,-0.26
8.65,-0.14
8.652777777777779,0.055
8.655555555555555,0.19
8.658333333333333,0.225
8.661111111111111,0.145
8.66388888888889,0.07
8.666666666666666,0.22
8.669444444444444,0.585
8.672222222222222,0.995
8.675,1.28
8.677777777777777,1.395
8.680555555555555,1.33
8.683333333333334,1.14
8.686111111111112,1.03
8.688888888888888,1.05
8.691666666666666,1.14
8.694444444444445,1.225
8.697222222222223,1.255
8.7,1.09
8.702777777777778,0.805
8.705555555555556,0.545
8.708333333333334,0.325
8.71111111111111,0.13
8.713888888888889,-0.125
8.716666666666667,-0.35
8.719444444444445,-0.49
8.722222222222221,-0.57
8.725,-0.625
8.727777777777778,-0.69
8.730555555555556,-0.695
8.733333333333333,-0.665
8.73611111111111,-0.67
8.738888888888889,-0.7
8.741666666666667,-0.79
8.744444444444444,-0.9
8.747222222222222,-0.89
8.75,-0.745
8.752777777777778,-0.535
8.755555555555556,-0.37
8.758333333333333,-0.28
8.761111111111111,-0.37
8.76388888888889,-0.71
8.766666666666667,-1.065
8.769444444444444,-1.16
8.772222222222222,-1.06
8.775,-0.885
8.777777777777779,-0.685
8.780555555555555,-0.59
8.783333333333333,-0.635
8.786111111111111,-0.79
8.78888888888889,-0.985
8.791666666666666,-1.125
8.794444444444444,-1.16
8.797222222222222,-1.09
8.8,-0.95
8.802777777777777,-0.84
8.805555555555555,-0.84
8.808333333333334,-0.89
8.811111111111112,-0.875
8.813888888888888,-0.84
8.816666666666666,-0.795
8.819444444444445,-0.745
8.822222222222223,-0.71
8.825,-0.68
8.827777777777778,-0.665
8.830555555555556,-0.655
8.833333333333334,-0.655
8.83611111111111,-0.67
8.838888888888889,-0.695
8.841666666666667,-0.685
8.844444444444445,-0.655
8.847222222222221,-0.63
8.85,-0.62
8.852777777777778,-0.595
8.855555555555556,-0.625
8.858333333333333,-0.675
8.86111111111111,-0.675
8.863888888888889,-0.54
8.866666666666667,-0.35
8.869444444444444,-0.225
8.872222222222222,-0.395
8.875,-0.85
8.877777777777778,-1.145
8.880555555555556,-1.005
8.883333333333333,-0.685
8.886111111111111,-0.495
8.88888888888889,-0.49
8.891666666666667,-0.52
8.894444444444444,-0.54
8.897222222222222,-0.505
8.9,-0.46
8.902777777777779,-0.4
8.905555555555555,-0.375
8.908333333333333,-0.385
8.911111111111111,-0.425
8.91388888888889,-0.405
8.916666666666666,-0.375
8.919444444444444,-0.365
8.922222222222222,-0.42
8.925,-0.45
8.927777777777777,-0.45
8.930555555555555,-0.44
8.933333333333334,-0.435
8.936111111111112,-0.41
8.938888888888888,-0.39
8.941666666666666,-0.39
8.944444444444445,-0.425
8.947222222222223,-0.415
8.95,-0.325
8.952777777777778,-0.235
8.955555555555556,-0.25
8.958333333333334,-0.335
8.96111111111111,-0.41
8.963888888888889,-0.345
8.966666666666667,-0.205
8.969444444444445,-0.14
8.972222222222221,-0.125
8.975,-0.12
8.977777777777778,-0.19
8.980555555555556,-0.37
8.983333333333333,-0.485
8.98611111111111,-0.435
8.988888888888889,-0.34
8.991666666666667,-0.305
8.994444444444444,-0.31
8.997222222222222,-0.31
9.0,-0.25
9.002777777777778,-0.165
9.005555555555556,-0.15
9.008333333333333,-0.17
9.011111111111111,-0.205
9.01388888888889,-0.24
9.016666666666667,-0.36
9.019444444444444,-0.49
9.022222222222222,-0.565
9.025,-0.515
9.027777777777779,-0.435
9.030555555555555,-0.395
9.033333333333333,-0.425
9.036111111111111,-0.41
9.03888888888889,-0.38
9.041666666666666,-0.345
9.044444444444444,-0.355
9.047222222222222,-0.355
9.05,-0.315
9.052777777777777,-0.23
9.055555555555555,-0.155
9.058333333333334,-0.17
9.061111111111112,-0.275
9.063888888888888,-0.35
9.066666666666666,-0.395
9.069444444444445,-0.37
9.072222222222223,-0.37
9.075,-0.46
9.077777777777778,-0.49
9.080555555555556,-0.425
9.083333333333334,-0.365
9.08611111111111,-0.32
9.088888888888889,-0.335
9.091666666666667,-0.35
9.094444444444445,-0.335
9.097222222222221,-0.27
9.1,-0.235
9.102777777777778,-0.23
9.105555555555556,-0.235
9.108333333333333,-0.265
9.11111111111111,-0.25
9.113888888888889,-0.145
9.116666666666667,-0.035
9.119444444444444,0.05
9.122222222222222,0.035
9.125,-0.005
9.127777777777778,-0.055
9.130555555555556,-0.115
9.133333333333333,-0.255
9.136111111111111,-0.41
9.13888888888889,-0.525
9.141666666666667,-0.5
9.144444444444444,-0.45
9.147222222222222,-0.385
9.15,-0.335
9.152777777777779,-0.25
9.155555555555555,-0.185
9.158333333333333,-0.175
9.161111111111111,-0.17
9.16388888888889,-0.165
9.166666666666666,-0.18
9.169444444444444,-0.185
9.172222222222222,-0.195
9.175,-0.185
9.177777777777777,-0.205
9.180555555555555,-0.205
9.183333333333334,-0.2
9.186111111111112,-0.18
9.188888888888888,-0.21
9.191666666666666,-0.24
9.194444444444445,-0.215
9.197222222222223,-0.17
9.2,-0.16
9.202777777777778,-0.17
9.205555555555556,-0.14
9.208333333333334,-0.105
9.21111111111111,-0.07
9.213888888888889,-0.015
9.216666666666667,0.075
9.219444444444445,0.2
9.222222222222221,0.345
9.225,0.385
9.227777777777778,0.415
9.230555555555556,0.49
9.233333333333333,0.665
9.23611111111111,0.91
9.238888888888889,1.175
9.241666666666667,1.45
9.244444444444444,1.575
9.247222222222222,1.575
9.25,1.545
9.252777777777778,1.595
9.255555555555556,1.715
9.258333333333333,1.765
9.261111111111111,1.69
9.26388888888889,1.64
9.266666666666667,1.595
9.269444444444444,1.52
9.272222222222222,1.375
9.275,1.15
9.277777777777779,0.865
9.280555555555555,0.61
9.283333333333333,0.43
9.286111111111111,0.33
9.28888888888889,0.22
9.291666666666666,0.02
9.294444444444444,-0.235
9.297222222222222,-0.44
9.3,-0.445
9.302777777777777,-0.29
9.305555555555555,-0.175
9.308333333333334,-0.215
9.311111111111112,-0.37
9.313888888888888,-0.445
9.316666666666666,-0.45
9.319444444444445,-0.49
9.322222222222223,-0.61
9.325,-0.705
9.327777777777778,-0.69
9.330555555555556,-0.645
9.333333333333334,-0.595
9.33611111111111,-0.575
9.338888888888889,-0.565
9.341666666666667,-0.56
9.344444444444445,-0.485
9.347222222222221,-0.415
9.35,-0.385
9.352777777777778,-0.435
9.355555555555556,-0.49
9.358333333333333,-0.45
9.36111111111111,-0.39
9.363888888888889,-0.42
9.366666666666667,-0.505
9.369444444444444,-0.545
9.372222222222222,-0.455
9.375,-0.395
9.377777777777778,-0.48
9.380555555555556,-0.6
9.383333333333333,-0.58
9.386111111111111,-0.455
9.38888888888889,-0.505
9.391666666666667,-0.665
9.394444444444444,-0.745
9.397222222222222,-0.695
9.4,-0.575
9.402777777777779,-0.465
9.405555555555555,-0.4
9.408333333333333,-0.39
9.411111111111111,-0.39
9.41388888888889,-0.385
9.416666666666666,-0.34
9.419444444444444,-0.265
9.422222222222222,-0.275
9.425,-0.365
9.427777777777777,-0.41
9.430555555555555,-0.34
9.433333333333334,-0.23
9.436111111111112,-0.13
9.438888888888888,-0.055
9.441666666666666,-0.035
9.444444444444445,-0.065
9.447222222222223,-0.095
9.45,-0.085
9.452777777777778,-0.105
9.455555555555556,-0.195
9.458333333333334,-0.23
9.46111111111111,-0.185
9.463888888888889,-0.105
9.466666666666667,-0.04
9.469444444444445,-0.025
9.472222222222221,-0.09
9.475,-0.17
9.477777777777778,-0.155
9.480555555555556,-0.11
9.483333333333333,-0.11
9.48611111111111,-0.13
9.488888888888889,-0.17
9.491666666666667,-0.175
9.494444444444444,-0.15
9.497222222222222,-0.125
9.5,-0.1
9.502777777777778,-0.06
9.505555555555556,0.045
9.508333333333333,0.095
9.511111111111111,0.015
9.51388888888889,-0.17
9.516666666666667,-0.275
9.519444444444444,-0.26
9.522222222222222,-0.13
9.525,0.01
9.527777777777779,-0.01
9.530555555555555,-0.175
9.533333333333333,-0.285
9.536111111111111,-0.295
9.53888888888889,-0.29
9.541666666666666,-0.315
9.544444444444444,-0.325
9.547222222222222,-0.285
9.55,-0.195
9.552777777777777,-0.13
9.555555555555555,-0.15
9.558333333333334,-0.19
9.561111111111112,-0.195
9.563888888888888,-0.16
9.566666666666666,-0.095
9.569444444444445,0.005
9.572222222222223,0.07
9.575,0.07
9.577777777777778,-0.03
9.580555555555556,-0.1
9.583333333333334,-0.095
9.58611111111111,0.005
9.588888888888889,0.07
9.591666666666667,0.11
9.594444444444445,0.15
9.597222222222221,0.28
9.6,0.5
9.602777777777778,0.78
9.605555555555556,1.085
9.608333333333333,1.305
9.61111111111111,1.495
9.613888888888889,1.625
9.616666666666667,1.615
9.619444444444444,1.53
9.622222222222222,1.39
9.625,1.27
9.627777777777778,1.21
9.630555555555556,1.18
9.633333333333333,1.065
9.636111111111111,0.93
9.63888888888889,0.815
9.641666666666667,0.725
9.644444444444444,0.6
9.647222222222222,0.415
9.65,0.235
9.652777777777779,0.085
9.655555555555555,-0.065
9.658333333333333,-0.28
9.661111111111111,-0.485
9.66388888888889,-0.515
9.666666666666666,-0.46
9.669444444444444,-0.4
9.672222222222222,-0.395
9.675,-0.43
9.677777777777777,-0.46
9.680555555555555,-0.475
9.683333333333334,-0.45
9.686111111111112,-0.445
9.688888888888888,-0.495
9.691666666666666,-0.53
9.694444444444445,-0.555
9.697222222222223,-0.555
9.7,-0.51
9.702777777777778,-0.495
9.705555555555556,-0.45
9.708333333333334,-0.415
9.71111111111111,-0.43
9.713888888888889,-0.495
9.716666666666667,-0.575
9.719444444444445,-0.59
9.722222222222221,-0.555
9.725,-0.5
9.727777777777778,-0.415
9.730555555555556,-0.32
9.733333333333333,-0.345
9.73611111111111,-0.54
9.738888888888889,-0.765
9.741666666666667,-0.855
9.744444444444444,-0.77
9.747222222222222,-0.635
9.75,-0.56
9.752777777777778,-0.525
9.755555555555556,-0.495
9.758333333333333,-0.46
9.761111111111111,-0.46
9.76388888888889,-0.44
9.766666666666667,-0.425
9.769444444444444,-0.385
9.772222222222222,-0.37
9.775,-0.355
9.777777777777779,-0.365
9.780555555555555,-0.335
9.783333333333333,-0.305
9.786111111111111,-0.265
9.78888888888889,-0.26
9.791666666666666,-0.235
9.794444444444444,-0.23
9.797222222222222,-0.205
9.8,-0.17
9.802777777777777,-0.15
9.805555555555555,-0.125
9.808333333333334,-0.14
9.811111111111112,-0.15
9.813888888888888,-0.105
9.816666666666666,-0.065
9.819444444444445,-0.035
9.822222222222223,-0.03
9.825,0.0
9.827777777777778,0.01
9.830555555555556,0.01
9.833333333333334,-0.01
9.83611111111111,-0.06
9.838888888888889,-0.115
9.841666666666667,-0.16
9.844444444444445,-0.18
9.847222222222221,-0.165
9.85,-0.14
9.852777777777778,-0.12
9.855555555555556,-0.165
9.858333333333333,-0.195
9.86111111111111,-0.215
9.863888888888889,-0.185
9.866666666666667,-0.175
9.869444444444444,-0.17
9.872222222222222,-0.15
9.875,-0.11
9.877777777777778,-0.115
9.880555555555556,-0.19
9.883333333333333,-0.26
9.886111111111111,-0.285
9.88888888888889,-0.285
9.891666666666667,-0.305
9.894444444444444,-0.305
9.897222222222222,-0.27
9.9,-0.25
9.902777777777779,-0.265
9.905555555555555,-0.26
9.908333333333333,-0.245
9.911111111111111,-0.235
9.91388888888889,-0.235
9.916666666666666,-0.215
9.919444444444444,-0.195
9.922222222222222,-0.205
9.925,-0.23
9.927777777777777,-0.24
9.930555555555555,-0.225
9.933333333333334,-0.185
9.936111111111112,-0.145
9.938888888888888,-0.135
9.941666666666666,-0.175
9.944444444444445,-0.225
9.947222222222223,-0.23
9.95,-0.22
9.952777777777778,-0.19
9.955555555555556,-0.175
9.958333333333334,-0.19
9.96111111111111,-0.195
9.963888888888889,-0.18
9.966666666666667,-0.165
9.969444444444445,-0.17
9.972222222222221,-0.17
9.975,-0.17
9.977777777777778,-0.175
9.980555555555556,-0.195
9.983333333333333,-0.16
9.98611111111111,-0.13
9.988888888888889,-0.105
9.991666666666667,-0.125
9.994444444444444,-0.165
9.997222222222222,-0.175
10.0,-0.18
10.002777777777778,-0.165
10.005555555555556,-0.14
10.008333333333333,-0.12
10.011111111111111,-0.13
10.01388888888889,-0.165
10.016666666666667,-0.195
10.019444444444444,-0.19
10.022222222222222,-0.195
10.025,-0.185
10.027777777777779,-0.19
10.030555555555555,-0.18
10.033333333333333,-0.17
10.036111111111111,-0.165
10.03888888888889,-0.175
10.041666666666666,-0.17
10.044444444444444,-0.175
10.047222222222222,-0.175
10.05,-0.18
10.052777777777777,-0.16
10.055555555555555,-0.155
10.058333333333334,-0.16
10.061111111111112,-0.17
10.063888888888888,-0.17
10.066666666666666,-0.145
10.069444444444445,-0.135
10.072222222222223,-0.145
10.075,-0.16
10.077777777777778,-0.17
10.080555555555556,-0.16
10.083333333333334,-0.17
10.08611111111111,-0.155
10.088888888888889,-0.155
10.091666666666667,-0.165
10.094444444444445,-0.175
10.097222222222221,-0.175
10.1,-0.145
10.102777777777778,-0.125
10.105555555555556,-0.135
10.108333333333333,-0.125
10.11111111111111,-0.105
10.113888888888889,-0.11
10.116666666666667,-0.11
10.119444444444444,-0.105
10.122222222222222,-0.085
10.125,-0.08
10.127777777777778,-0.1
10.130555555555556,-0.105
10.133333333333333,-0.085
10.136111111111111,-0.05
10.13888888888889,-0.045
10.141666666666667,-0.08
10.144444444444444,-0.095
10.147222222222222,-0.105
10.15,-0.08
10.152777777777779,-0.065
10.155555555555555,-0.08
10.158333333333333,-0.1
10.161111111111111,-0.105
10.16388888888889,-0.115
10.166666666666666,-0.105
10.169444444444444,-0.085
10.172222222222222,-0.085
10.175,-0.07
10.177777777777777,-0.075
10.180555555555555,-0.105
10.183333333333334,-0.11
10.186111111111112,-0.095
10.188888888888888,-0.09
10.191666666666666,-0.09
10.194444444444445,-0.105
10.197222222222223,-0.095
10.2,-0.085
10.202777777777778,-0.065
10.205555555555556,-0.08
10.208333333333334,-0.085
10.21111111111111,-0.1
10.213888888888889,-0.09
10.216666666666667,-0.06
10.219444444444445,-0.055
10.222222222222221,-0.075
10.225,-0.09
10.227777777777778,-0.095
10.230555555555556,-0.06
10.233333333333333,-0.05
10.23611111111111,-0.045
10.238888888888889,-0.04
10.241666666666667,-0.06
10.244444444444444,-0.065
10.247222222222222,-0.07
10.25,-0.055
10.252777777777778,-0.025
10.255555555555556,-0.04
10.258333333333333,-0.055
10.261111111111111,-0.07
10.26388888888889,-0.005
10.266666666666667,0.075
10.269444444444444,0.135
10.272222222222222,0.16
10.275,0.185
10.277777777777779,0.24
10.280555555555555,0.345
10.283333333333333,0.425
10.286111111111111,0.495
10.28888888888889,0.555
10.291666666666666,0.635
10.294444444444444,0.83
10.297222222222222,1.145
10.3,1.455
10.302777777777777,1.665
10.305555555555555,1.715
10.308333333333334,1.74
10.311111111111112,1.795
10.313888888888888,1.845
10.316666666666666,1.83
10.319444444444445,1.785
10.322222222222223,1.7
10.325,1.52
10.327777777777778,1.345
10.330555555555556,1.185
10.333333333333334,1.015
10.33611111111111,0.835
10.338888888888889,0.59
10.341666666666667,0.35
10.344444444444445,0.155
10.347222222222221,-0.005
10.35,-0.115
10.352777777777778,-0.18
10.355555555555556,-0.195
10.358333333333333,-0.215
10.36111111111111,-0.24
10.363888888888889,-0.27
10.366666666666667,-0.285
10.369444444444444,-0.27
10.372222222222222,-0.26
10.375,-0.295
10.377777777777778,-0.31
10.380555555555556,-0.325
10.383333333333333,-0.31
10.386111111111111,-0.31
10.38888888888889,-0.32
10.391666666666667,-0.35
10.394444444444444,-0.355
10.397222222222222,-0.33
10.4,-0.32
10.402777777777779,-0.34
10.405555555555555,-0.325
10.408333333333333,-0.35
10.411111111111111,-0.355
10.41388888888889,-0.345
10.416666666666666,-0.325
10.419444444444444,-0.3
10.422222222222222,-0.305
10.425,-0.32
10.427777777777777,-0.33
10.430555555555555,-0.32
10.433333333333334,-0.31
10.436111111111112,-0.29
10.438888888888888,-0.295
10.441666666666666,-0.305
10.444444444444445,-0.3
10.447222222222223,-0.285
10.45,-0.275
10.452777777777778,-0.265
10.455555555555556,-0.27
10.458333333333334,-0.295
10.46111111111111,-0.295
10.463888888888889,-0.285
10.466666666666667,-0.27
10.469444444444445,-0.26
10.472222222222221,-0.23
10.475,-0.225
10.477777777777778,-0.22
10.480555555555556,-0.22
10.483333333333333,-0.19
10.48611111111111,-0.175
10.488888888888889,-0.18
10.491666666666667,-0.175
10.494444444444444,-0.17
10.497222222222222,-0.13
10.5,-0.115
10.502777777777778,-0.09
10.505555555555556,-0.085
10.508333333333333,-0.06
10.511111111111111,-0.055
10.51388888888889,-0.03
10.516666666666667,0.0
10.519444444444444,0.045
10.522222222222222,0.06
10.525,0.07
10.527777777777779,0.1
10.530555555555555,0.13
10.533333333333333,0.16
10.536111111111111,0.19
10.53888888888889,0.19
10.541666666666666,0.2
10.544444444444444,0.2
10.547222222222222,0.205
10.55,0.23
10.552777777777777,0.245
10.555555555555555,0.245
10.558333333333334,0.23
10.561111111111112,0.215
10.563888888888888,0.21
10.566666666666666,0.22
10.569444444444445,0.22
10.572222222222223,0.225
10.575,0.21
10.577777777777778,0.205
10.580555555555556,0.21
10.583333333333334,0.195
10.58611111111111,0.195
10.588888888888889,0.2
10.591666666666667,0.19
10.594444444444445,0.17
10.597222222222221,0.185
10.6,0.205
10.602777777777778,0.22
10.605555555555556,0.22
10.608333333333333,0.195
10.61111111111111,0.185
10.613888888888889,0.205
10.616666666666667,0.2
10.619444444444444,0.22
10.622222222222222,0.21
10.625,0.19
10.627777777777778,0.195
10.630555555555556,0.19
10.633333333333333,0.205
10.636111111111111,0.24
10.63888888888889,0.27
10.641666666666667,0.29
10.644444444444444,0.345
10.647222222222222,0.415
10.65,0.495
10.652777777777779,0.53
10.655555555555555,0.49
10.658333333333333,0.385
10.661111111111111,0.33
10.66388888888889,0.285
10.666666666666666,0.22
10.669444444444444,0.09
10.672222222222222,-0.015
10.675,-0.04
10.677777777777777,-0.01
10.680555555555555,0.02
10.683333333333334,-0.015
10.686111111111112,-0.11
10.688888888888888,-0.165
10.691666666666666,-0.195
10.694444444444445,-0.225
10.697222222222223,-0.325
10.7,-0.405
10.702777777777778,-0.465
10.705555555555556,-0.46
10.708333333333334,-0.425
10.71111111111111,-0.42
10.713888888888889,-0.42
10.716666666666667,-0.325
10.719444444444445,-0.19
10.722222222222221,-0.07
10.725,-0.015
10.727777777777778,-0.01
10.730555555555556,-0.04
10.733333333333333,-0.05
10.73611111111111,-0.04
10.738888888888889,-0.015
10.741666666666667,0.025
10.744444444444444,0.085
10.747222222222222,0.15
10.75,0.195
10.752777777777778,0.205
10.755555555555556,0.245
10.758333333333333,0.27
10.761111111111111,0.255
10.76388888888889,0.22
10.766666666666667,0.225
10.769444444444444,0.2
10.772222222222222,0.155
10.775,0.105
10.777777777777779,0.075
10.780555555555555,0.075
10.783333333333333,0.095
10.786111111111111,0.105
10.78888888888889,0.095
10.791666666666666,0.08
10.794444444444444,0.095
10.797222222222222,0.105
10.8,0.145
10.802777777777777,0.135
10.805555555555555,0.145
10.808333333333334,0.15
10.811111111111112,0.15
10.813888888888888,0.17
10.816666666666666,0.2
10.819444444444445,0.24
10.822222222222223,0.26
10.825,0.27
10.827777777777778,0.29
10.830555555555556,0.345
10.833333333333334,0.395
10.83611111111111,0.43
10.838888888888889,0.435
10.841666666666667,0.46
10.844444444444445,0.5
10.847222222222221,0.545
10.85,0.58
10.852777777777778,0.615
10.855555555555556,0.645
10.858333333333333,0.67
10.86111111111111,0.69
10.863888888888889,0.73
10.866666666666667,0.775
10.869444444444444,0.83
10.872222222222222,0.865
10.875,0.875
10.877777777777778,0.905
10.880555555555556,0.965
10.883333333333333,1.01
10.886111111111111,1.035
10.88888888888889,1.09
10.891666666666667,1.12
10.894444444444444,1.145
10.897222222222222,1.165
10.9,1.19
10.902777777777779,1.22
10.905555555555555,1.25
10.908333333333333,1.245
10.911111111111111,1.245
10.91388888888889,1.26
10.916666666666666,1.26
10.919444444444444,1.235
10.922222222222222,1.225
10.925,1.18
10.927777777777777,1.125
10.930555555555555,1.095
10.933333333333334,1.06
10.936111111111112,1.04
10.938888888888888,0.985
10.941666666666666,0.93
10.944444444444445,0.865
10.947222222222223,0.85
10.95,0.81
10.952777777777778,0.765
10.955555555555556,0.725
10.958333333333334,0.675
10.96111111111111,0.635
10.963888888888889,0.59
10.966666666666667,0.575
10.969444444444445,0.55
10.972222222222221,0.52
10.975,0.48
10.977777777777778,0.435
10.980555555555556,0.425
10.983333333333333,0.43
10.98611111111111,0.415
10.988888888888889,0.395
10.991666666666667,0.365
10.994444444444444,0.35
10.997222222222222,0.335
11.0,0.315
11.002777777777778,0.325
11.005555555555556,0.32
11.008333333333333,0.295
11.011111111111111,0.27
11.01388888888889,0.285
11.016666666666667,0.31
11.019444444444444,0.295
11.022222222222222,0.295
11.025,0.27
11.027777777777779,0.265
11.030555555555555,0.28
11.033333333333333,0.28
11.036111111111111,0.29
11.03888888888889,0.29
11.041666666666666,0.275
11.044444444444444,0.3
11.047222222222222,0.385
11.05,0.505
11.052777777777777,0.59
11.055555555555555,0.625
11.058333333333334,0.67
11.061111111111112,0.725
11.063888888888888,0.75
11.066666666666666,0.77
11.069444444444445,0.895
11.072222222222223,1.07
11.075,1.3
11.077777777777778,1.535
11.080555555555556,1.735
11.083333333333334,1.82
11.08611111111111,1.82
11.088888888888889,1.825
11.091666666666667,1.785
11.094444444444445,1.7
11.097222222222221,1.62
11.1,1.52
11.102777777777778,1.39
11.105555555555556,1.235
11.108333333333333,1.1
11.11111111111111,0.95
11.113888888888889,0.785
11.116666666666667,0.585
11.119444444444444,0.415
11.122222222222222,0.23
11.125,0.075
11.127777777777778,-0.03
11.130555555555556,-0.04
11.133333333333333,-0.045
11.136111111111111,-0.06
11.13888888888889,-0.11
11.141666666666667,-0.15
11.144444444444444,-0.19
11.147222222222222,-0.205
11.15,-0.205
11.152777777777779,-0.195
11.155555555555555,-0.23
11.158333333333333,-0.265
11.161111111111111,-0.28
11.16388888888889,-0.295
11.166666666666666,-0.275
11.169444444444444,-0.265
11.172222222222222,-0.29
11.175,-0.3
11.177777777777777,-0.3
11.180555555555555,-0.3
11.183333333333334,-0.285
11.186111111111112,-0.27
11.188888888888888,-0.265
11.191666666666666,-0.28
11.194444444444445,-0.28
11.197222222222223,-0.28
11.2,-0.26
11.202777777777778,-0.25
11.205555555555556,-0.245
11.208333333333334,-0.24
11.21111111111111,-0.24
11.213888888888889,-0.225
11.216666666666667,-0.2
11.219444444444445,-0.205
11.222222222222221,-0.215
11.225,-0.225
11.227777777777778,-0.215
11.230555555555556,-0.18
11.233333333333333,-0.185
11.23611111111111,-0.185
11.238888888888889,-0.205
11.241666666666667,-0.205
11.244444444444444,-0.215
11.247222222222222,-0.21
11.25,-0.195
11.252777777777778,-0.18
11.255555555555556,-0.165
11.258333333333333,-0.18
11.261111111111111,-0.19
11.26388888888889,-0.175
11.266666666666667,-0.145
11.269444444444444,-0.13
11.272222222222222,-0.11
11.275,-0.1
11.277777777777779,-0.065
11.280555555555555,-0.005
11.283333333333333,0.03
11.286111111111111,0.045
11.28888888888889,0.08
11.291666666666666,0.1
11.294444444444444,0.13
11.297222222222222,0.155
11.3,0.185
11.302777777777777,0.2
11.305555555555555,0.21
11.308333333333334,0.2
11.311111111111112,0.175
11.313888888888888,0.205
11.316666666666666,0.23
11.319444444444445,0.23
11.322222222222223,0.195
11.325,0.185
11.327777777777778,0.185
11.330555555555556,0.18
11.333333333333334,0.18
11.33611111111111,0.17
11.338888888888889,0.155
11.341666666666667,0.135
11.344444444444445,0.125
11.347222222222221,0.125
11.35,0.145
11.352777777777778,0.145
11.355555555555556,0.135
11.358333333333333,0.105
11.36111111111111,0.125
11.363888888888889,0.13
11.366666666666667,0.13
11.369444444444444,0.125
11.372222222222222,0.12
11.375,0.11
11.377777777777778,0.115
11.380555555555556,0.135
11.383333333333333,0.145
11.386111111111111,0.17
11.38888888888889,0.185
11.391666666666667,0.165
11.394444444444444,0.14
11.397222222222222,0.15
11.4,0.18
11.402777777777779,0.195
11.405555555555555,0.16
11.408333333333333,0.12
11.411111111111111,0.11
11.41388888888889,0.125
11.416666666666666,0.125
11.419444444444444,0.145
11.422222222222222,0.135
11.425,0.13
11.427777777777777,0.115
11.430555555555555,0.14
11.433333333333334,0.17
11.436111111111112,0.16
11.438888888888888,0.14
11.441666666666666,0.13
11.444444444444445,0.145
11.447222222222223,0.145
11.45,0.14
11.452777777777778,0.145
11.455555555555556,0.15
11.458333333333334,0.13
11.46111111111111,0.13
11.463888888888889,0.15
11.466666666666667,0.165
11.469444444444445,0.15
11.472222222222221,0.145
11.475,0.125
11.477777777777778,0.155
11.480555555555556,0.125
11.483333333333333,0.115
11.48611111111111,0.13
11.488888888888889,0.155
11.491666666666667,0.135
11.494444444444444,0.11
11.497222222222222,0.12
11.5,0.15
11.502777777777778,0.15
11.505555555555556,0.125
11.508333333333333,0.095
11.511111111111111,0.095
11.51388888888889,0.09
11.516666666666667,0.09
11.519444444444444,0.105
11.522222222222222,0.105
11.525,0.075
11.527777777777779,0.05
11.530555555555555,0.055
11.533333333333333,0.1
11.536111111111111,0.09
11.53888888888889,0.075
11.541666666666666,0.045
11.544444444444444,0.055
11.547222222222222,0.09
11.55,0.105
11.552777777777777,0.12
11.555555555555555,0.115
11.558333333333334,0.115
11.561111111111112,0.12
11.563888888888888,0.13
11.566666666666666,0.13
11.569444444444445,0.125
11.572222222222223,0.11
11.575,0.085
11.577777777777778,0.085
11.580555555555556,0.095
11.583333333333334,0.095
11.58611111111111,0.095
11.588888888888889,0.075
11.591666666666667,0.08
11.594444444444445,0.085
11.597222222222221,0.1
11.6,0.095
11.602777777777778,0.12
11.605555555555556,0.125
11.608333333333333,0.1
11.61111111111111,0.075
11.613888888888889,0.075
11.616666666666667,0.09
11.619444444444444,0.09
11.622222222222222,0.08
11.625,0.06
11.627777777777778,0.05
11.630555555555556,0.045
11.633333333333333,0.06
11.636111111111111,0.065
11.63888888888889,0.085
11.641666666666667,0.085
11.644444444444444,0.075
11.647222222222222,0.08
11.65,0.085
11.652777777777779,0.07
11.655555555555555,0.05
11.658333333333333,0.06
11.661111111111111,0.06
11.66388888888889,0.065
11.666666666666666,0.05
11.669444444444444,0.07
11.672222222222222,0.065
11.675,0.07
11.677777777777777,0.045
11.680555555555555,0.04
11.683333333333334,0.065
11.686111111111112,0.095
11.688888888888888,0.105
11.691666666666666,0.075
11.694444444444445,0.05
11.697222222222223,0.05
11.7,0.06
11.702777777777778,0.075
11.705555555555556,0.1
11.708333333333334,0.15
11.71111111111111,0.215
11.713888888888889,0.27
11.716666666666667,0.32
11.719444444444445,0.35
11.722222222222221,0.36
11.725,0.37
11.727777777777778,0.395
11.730555555555556,0.46
11.733333333333333,0.515
11.73611111111111,0.535
11.738888888888889,0.565
11.741666666666667,0.61
11.744444444444444,0.705
11.747222222222222,0.795
11.75,0.88
11.752777777777778,0.93
11.755555555555556,0.97
11.758333333333333,1.02
11.761111111111111,1.06
11.76388888888889,1.095
11.766666666666667,1.14
11.769444444444444,1.175
11.772222222222222,1.085
11.775,0.965
11.777777777777779,0.855
11.780555555555555,0.795
11.783333333333333,0.76
11.786111111111111,0.66
11.78888888888889,0.485
11.791666666666666,0.305
11.794444444444444,0.17
11.797222222222222,0.1
11.8,0.0
11.802777777777777,-0.05
11.805555555555555,-0.09
11.808333333333334,-0.105
11.811111111111112,-0.115
11.813888888888888,-0.125
11.816666666666666,-0.145
11.819444444444445,-0.165
11.822222222222223,-0.19
11.825,-0.21
11.827777777777778,-0.225
11.830555555555556,-0.23
11.833333333333334,-0.225
11.83611111111111,-0.22
11.838888888888889,-0.225
11.841666666666667,-0.265
11.844444444444445,-0.295
11.847222222222221,-0.275
11.85,-0.265
11.852777777777778,-0.26
11.855555555555556,-0.285
11.858333333333333,-0.32
11.86111111111111,-0.32
11.863888888888889,-0.315
11.866666666666667,-0.315
11.869444444444444,-0.32
11.872222222222222,-0.34
11.875,-0.325
11.877777777777778,-0.31
11.880555555555556,-0.31
11.883333333333333,-0.31
11.886111111111111,-0.295
11.88888888888889,-0.28
11.891666666666667,-0.285
11.894444444444444,-0.305
11.897222222222222,-0.285
11.9,-0.27
11.902777777777779,-0.255
11.905555555555555,-0.25
11.908333333333333,-0.245
11.911111111111111,-0.23
11.91388888888889,-0.185
11.916666666666666,-0.15
11.919444444444444,-0.13
11.922222222222222,-0.11
11.925,-0.11
11.927777777777777,-0.105
11.930555555555555,-0.11
11.933333333333334,-0.075
11.936111111111112,-0.04
11.938888888888888,-0.04
11.941666666666666,-0.07
11.944444444444445,-0.085
11.947222222222223,-0.055
11.95,-0.035
11.952777777777778,0.0
11.955555555555556,-0.02
11.958333333333334,-0.02
11.96111111111111,-0.01
11.963888888888889,0.0
11.966666666666667,0.01
11.969444444444445,0.015
11.972222222222221,0.015
11.975,0.035
11.977777777777778,0.05
11.980555555555556,0.045
11.983333333333333,0.08
11.98611111111111,0.1
11.988888888888889,0.09
11.991666666666667,0.085
11.994444444444444,0.065
11.997222222222222,0.045
12.0,0.05
12.002777777777778,0.065
12.005555555555556,0.08
12.008333333333333,0.07
12.011111111111111,0.015
12.01388888888889,0.015
12.016666666666667,0.045
12.019444444444444,0.055
12.022222222222222,0.03
12.025,-0.025
12.027777777777779,-0.04
12.030555555555555,-0.03
12.033333333333333,0.0
12.036111111111111,0.015
12.03888888888889,-0.005
12.041666666666666,-0.01
12.044444444444444,-0.025
12.047222222222222,-0.05
12.05,-0.06
12.052777777777777,-0.035
12.055555555555555,-0.03
12.058333333333334,-0.035
12.061111111111112,-0.045
12.063888888888888,-0.02
12.066666666666666,-0.005
12.069444444444445,-0.015
12.072222222222223,-0.01
12.075,-0.015
12.077777777777778,-0.005
12.080555555555556,0.01
12.083333333333334,0.01
12.08611111111111,0.02
12.088888888888889,0.015
12.091666666666667,0.0
12.094444444444445,0.01
12.097222222222221,0.005
12.1,0.005
12.102777777777778,-0.015
12.105555555555556,-0.005
12.108333333333333,0.02
12.11111111111111,0.025
12.113888888888889,0.025
12.116666666666667,0.04
12.119444444444444,0.045
12.122222222222222,0.025
12.125,0.02
12.127777777777778,0.01
12.130555555555556,0.04
12.133333333333333,0.065
12.136111111111111,0.06
12.13888888888889,0.03
12.141666666666667,0.005
12.144444444444444,0.0
12.147222222222222,0.03
12.15,0.065
12.152777777777779,0.08
12.155555555555555,0.05
12.158333333333333,0.015
12.161111111111111,-0.01
12.16388888888889,0.01
12.166666666666666,0.04
12.169444444444444,0.035
12.172222222222222,0.025
12.175,-0.02
12.177777777777777,-0.04
12.180555555555555,-0.025
12.183333333333334,-0.01
12.186111111111112,-0.015
12.188888888888888,-0.035
12.191666666666666,-0.04
12.194444444444445,-0.045
12.197222222222223,-0.045
12.2,-0.06
12.202777777777778,-0.05
12.205555555555556,-0.045
12.208333333333334,-0.07
12.21111111111111,-0.105
12.213888888888889,-0.14
12.216666666666667,-0.13
12.219444444444445,-0.125
12.222222222222221,-0.115
12.225,-0.125
12.227777777777778,-0.145
12.230555555555556,-0.16
12.233333333333333,-0.17
12.23611111111111,-0.15
12.238888888888889,-0.145
12.241666666666667,-0.14
12.244444444444444,-0.12
12.247222222222222,-0.1
12.25,-0.09
12.252777777777778,-0.08
12.255555555555556,-0.065
12.258333333333333,-0.075
12.261111111111111,-0.095
12.26388888888889,-0.11
12.266666666666667,-0.1
12.269444444444444,-0.09
12.272222222222222,-0.105
12.275,-0.145
12.277777777777779,-0.145
12.280555555555555,-0.13
12.283333333333333,-0.12
12.286111111111111,-0.13
12.28888888888889,-0.16
12.291666666666666,-0.185
12.294444444444444,-0.17
12.297222222222222,-0.15
12.3,-0.125
12.302777777777777,-0.12
12.305555555555555,-0.155
12.308333333333334,-0.19
12.311111111111112,-0.16
12.313888888888888,-0.13
12.316666666666666,-0.115
12.319444444444445,-0.105
12.322222222222223,-0.095
12.325,-0.13
12.327777777777778,-0.165
12.330555555555556,-0.2
12.333333333333334,-0.19
12.33611111111111,-0.175
12.338888888888889,-0.195
12.341666666666667,-0.215
12.344444444444445,-0.22
12.347222222222221,-0.21
12.35,-0.205
12.352777777777778,-0.185
12.355555555555556,-0.225
12.358333333333333,-0.22
12.36111111111111,-0.185
12.363888888888889,-0.155
12.366666666666667,-0.135
12.369444444444444,-0.165
12.372222222222222,-0.22
12.375,-0.245
12.377777777777778,-0.25
12.380555555555556,-0.24
12.383333333333333,-0.215
12.386111111111111,-0.23
12.38888888888889,-0.255
12.391666666666667,-0.265
12.394444444444444,-0.265
12.397222222222222,-0.265
12.4,-0.25
12.402777777777779,-0.23
12.405555555555555,-0.23
12.408333333333333,-0.25
12.411111111111111,-0.265
12.41388888888889,-0.25
12.416666666666666,-0.225
12.419444444444444,-0.21
12.422222222222222,-0.245
12.425,-0.26
12.427777777777777,-0.245
12.430555555555555,-0.215
12.433333333333334,-0.18
12.436111111111112,-0.17
12.438888888888888,-0.17
12.441666666666666,-0.185
12.444444444444445,-0.18
12.447222222222223,-0.175
12.45,-0.18
12.452777777777778,-0.205
12.455555555555556,-0.215
12.458333333333334,-0.2
12.46111111111111,-0.185
12.463888888888889,-0.19
12.466666666666667,-0.2
12.469444444444445,-0.19
12.472222222222221,-0.175
12.475,-0.185
12.477777777777778,-0.2
12.480555555555556,-0.195
12.483333333333333,-0.165
12.48611111111111,-0.16
12.488888888888889,-0.17
12.491666666666667,-0.2
12.494444444444444,-0.23
12.497222222222222,-0.22
12.5,-0.21
12.502777777777778,-0.21
12.505555555555556,-0.22
12.508333333333333,-0.235
12.511111111111111,-0.245
12.51388888888889,-0.24
12.516666666666667,-0.21
12.519444444444444,-0.18
12.522222222222222,-0.195
12.525,-0.205
12.527777777777779,-0.175
12.530555555555555,-0.095
12.533333333333333,-0.01
12.536111111111111,0.05
12.53888888888889,0.09
12.541666666666666,0.115
12.544444444444444,0.13
12.547222222222222,0.17
12.55,0.215
12.552777777777777,0.245
12.555555555555555,0.265
12.558333333333334,0.295
12.561111111111112,0.315
12.563888888888888,0.38
12.566666666666666,0.435
12.569444444444445,0.435
12.572222222222223,0.44
12.575,0.48
12.577777777777778,0.49
12.580555555555556,0.43
12.583333333333334,0.335
12.58611111111111,0.2
12.588888888888889,-0.02
12.591666666666667,-0.24
12.594444444444445,-0.43
12.597222222222221,-0.55
12.6,-0.625
12.602777777777778,-0.76
12.605555555555556,-0.965
12.608333333333333,-1.1
12.61111111111111,-1.115
12.613888888888889,-1.035
12.616666666666667,-0.975
12.619444444444444,-0.94
12.622222222222222,-0.88
12.625,-0.81
12.627777777777778,-0.745
12.630555555555556,-0.695
12.633333333333333,-0.64
12.636111111111111,-0.585
12.63888888888889,-0.53
12.641666666666667,-0.475
12.644444444444444,-0.39
12.647222222222222,-0.305
12.65,-0.285
12.652777777777779,-0.295
12.655555555555555,-0.365
12.658333333333333,-0.405
12.661111111111111,-0.445
12.66388888888889,-0.445
12.666666666666666,-0.435
12.669444444444444,-0.45
12.672222222222222,-0.46
12.675,-0.485
12.677777777777777,-0.5
12.680555555555555,-0.485
12.683333333333334,-0.475
12.686111111111112,-0.47
12.688888888888888,-0.5
12.691666666666666,-0.53
12.694444444444445,-0.51
12.697222222222223,-0.5
12.7,-0.53
12.702777777777778,-0.56
12.705555555555556,-0.595
12.708333333333334,-0.6
12.71111111111111,-0.58
12.713888888888889,-0.555
12.716666666666667,-0.53
12.719444444444445,-0.495
12.722222222222221,-0.52
12.725,-0.61
12.727777777777778,-0.745
12.730555555555556,-0.79
12.733333333333333,-0.725
12.73611111111111,-0.695
12.738888888888889,-0.75
12.741666666666667,-0.815
12.744444444444444,-0.79
12.747222222222222,-0.675
12.75,-0.605
12.752777777777778,-0.625
12.755555555555556,-0.645
12.758333333333333,-0.66
12.761111111111111,-0.635
12.76388888888889,-0.645
12.766666666666667,-0.685
12.769444444444444,-0.665
12.772222222222222,-0.64
12.775,-0.645
12.777777777777779,-0.66
12.780555555555555,-0.61
12.783333333333333,-0.545
12.786111111111111,-0.51
12.78888888888889,-0.525
12.791666666666666,-0.56
12.794444444444444,-0.565
12.797222222222222,-0.54
12.8,-0.525
12.802777777777777,-0.475
12.805555555555555,-0.435
12.808333333333334,-0.4
12.811111111111112,-0.37
12.813888888888888,-0.335
12.816666666666666,-0.285
12.819444444444445,-0.24
12.822222222222223,-0.225
12.825,-0.23
12.827777777777778,-0.22
12.830555555555556,-0.19
12.833333333333334,-0.165
12.83611111111111,-0.12
12.838888888888889,-0.085
12.841666666666667,-0.09
12.844444444444445,-0.095
12.847222222222221,-0.085
12.85,-0.065
12.852777777777778,-0.06
12.855555555555556,-0.08
12.858333333333333,-0.055
12.86111111111111,-0.025
12.863888888888889,-0.02
12.866666666666667,-0.045
12.869444444444444,-0.085
12.872222222222222,-0.135
12.875,-0.19
12.877777777777778,-0.2
12.880555555555556,-0.18
12.883333333333333,-0.155
12.886111111111111,-0.165
12.88888888888889,-0.175
12.891666666666667,-0.165
12.894444444444444,-0.15
12.897222222222222,-0.155
12.9,-0.16
12.902777777777779,-0.185
12.905555555555555,-0.22
12.908333333333333,-0.25
12.911111111111111,-0.26
12.91388888888889,-0.235
12.916666666666666,-0.225
12.919444444444444,-0.255
12.922222222222222,-0.31
12.925,-0.35
12.927777777777777,-0.335
12.930555555555555,-0.28
12.933333333333334,-0.24
12.936111111111112,-0.26
12.938888888888888,-0.29
12.941666666666666,-0.335
12.944444444444445,-0.345
12.947222222222223,-0.33
12.95,-0.315
12.952777777777778,-0.295
12.955555555555556,-0.275
12.958333333333334,-0.285
12.96111111111111,-0.32
12.963888888888889,-0.295
12.966666666666667,-0.265
12.969444444444445,-0.29
12.972222222222221,-0.33
12.975,-0.36
12.977777777777778,-0.35
12.980555555555556,-0.325
12.983333333333333,-0.335
12.98611111111111,-0.36
12.988888888888889,-0.35
12.991666666666667,-0.3
12.994444444444444,-0.28
12.997222222222222,-0.285
13.0,-0.315
13.002777777777778,-0.355
13.005555555555556,-0.35
13.008333333333333,-0.325
13.011111111111111,-0.315
13.01388888888889,-0.315
13.016666666666667,-0.315
13.019444444444444,-0.29
13.022222222222222,-0.305
13.025,-0.3
13.027777777777779,-0.295
13.030555555555555,-0.265
13.033333333333333,-0.23
13.036111111111111,-0.175
13.03888888888889,-0.115
13.041666666666666,-0.04
13.044444444444444,-0.01
13.047222222222222,-0.045
13.05,-0.125
13.052777777777777,-0.225
13.055555555555555,-0.36
13.058333333333334,-0.48
13.061111111111112,-0.54
13.063888888888888,-0.555
13.066666666666666,-0.525
13.069444444444445,-0.505
13.072222222222223,-0.53
13.075,-0.54
13.077777777777778,-0.53
13.080555555555556,-0.58
13.083333333333334,-0.595
13.08611111111111,-0.525
13.088888888888889,-0.37
13.091666666666667,-0.22
13.094444444444445,-0.065
13.097222222222221,0.09
13.1,0.24
13.102777777777778,0.385
13.105555555555556,0.51
13.108333333333333,0.585
13.11111111111111,0.655
13.113888888888889,0.68
13.116666666666667,0.69
13.119444444444444,0.675
13.122222222222222,0.65
13.125,0.595
13.127777777777778,0.535
13.130555555555556,0.44
13.133333333333333,0.3
13.136111111111111,0.13
13.13888888888889,-0.05
13.141666666666667,-0.21
13.144444444444444,-0.34
13.147222222222222,-0.43
13.15,-0.41
13.152777777777779,-0.405
13.155555555555555,-0.435
13.158333333333333,-0.47
13.161111111111111,-0.48
13.16388888888889,-0.48
13.166666666666666,-0.485
13.169444444444444,-0.505
13.172222222222222,-0.525
13.175,-0.51
13.177777777777777,-0.51
13.180555555555555,-0.485
13.183333333333334,-0.49
13.186111111111112,-0.48
13.188888888888888,-0.495
13.191666666666666,-0.51
13.194444444444445,-0.52
13.197222222222223,-0.51
13.2,-0.465
13.202777777777778,-0.455
13.205555555555556,-0.44
13.208333333333334,-0.44
13.21111111111111,-0.435
13.213888888888889,-0.42
13.216666666666667,-0.4
13.219444444444445,-0.375
13.222222222222221,-0.34
13.225,-0.32
13.227777777777778,-0.285
13.230555555555556,-0.22
13.233333333333333,-0.17
13.23611111111111,-0.145
13.238888888888889,-0.15
13.241666666666667,-0.155
13.244444444444444,-0.13
13.247222222222222,-0.085
13.25,-0.065
13.252777777777778,-0.08
13.255555555555556,-0.055
13.258333333333333,-0.015
13.261111111111111,0.025
13.26388888888889,0.055
13.266666666666667,0.085
13.269444444444444,0.1
13.272222222222222,0.11
13.275,0.105
13.277777777777779,0.12
13.280555555555555,0.14
13.283333333333333,0.16
13.286111111111111,0.14
13.28888888888889,0.12
13.291666666666666,0.09
13.294444444444444,0.085
13.297222222222222,0.075
13.3,0.075
13.302777777777777,0.04
13.305555555555555,0.015
13.308333333333334,0.005
13.311111111111112,-0.02
13.313888888888888,-0.035
13.316666666666666,-0.05
13.319444444444445,-0.08
13.322222222222223,-0.1
13.325,-0.12
13.327777777777778,-0.165
13.330555555555556,-0.17
13.333333333333334,-0.175
13.33611111111111,-0.175
13.338888888888889,-0.21
13.341666666666667,-0.245
13.344444444444445,-0.26
13.347222222222221,-0.255
13.35,-0.26
13.352777777777778,-0.275
13.355555555555556,-0.3
13.358333333333333,-0.295
13.36111111111111,-0.295
13.363888888888889,-0.275
13.366666666666667,-0.275
13.369444444444444,-0.275
13.372222222222222,-0.27
13.375,-0.26
13.377777777777778,-0.26
13.380555555555556,-0.25
13.383333333333333,-0.24
13.386111111111111,-0.23
13.38888888888889,-0.235
13.391666666666667,-0.24
13.394444444444444,-0.255
13.397222222222222,-0.24
13.4,-0.205
13.402777777777779,-0.195
13.405555555555555,-0.225
13.408333333333333,-0.235
13.411111111111111,-0.24
13.41388888888889,-0.22
13.416666666666666,-0.205
13.419444444444444,-0.215
13.422222222222222,-0.23
13.425,-0.235
13.427777777777777,-0.23
13.430555555555555,-0.225
13.433333333333334,-0.23
13.436111111111112,-0.23
13.438888888888888,-0.215
13.441666666666666,-0.185
13.444444444444445,-0.155
13.447222222222223,-0.14
13.45,-0.135
13.452777777777778,-0.115
13.455555555555556,-0.105
13.458333333333334,-0.085
13.46111111111111,-0.075
13.463888888888889,-0.05
13.466666666666667,0.0
13.469444444444445,0.135
13.472222222222221,0.325
13.475,0.525
13.477777777777778,0.71
13.480555555555556,0.805
13.483333333333333,0.87
13.48611111111111,0.965
13.488888888888889,1.07
13.491666666666667,1.11
13.494444444444444,1.11
13.497222222222222,1.125
13.5,1.125
13.502777777777778,1.08
13.505555555555556,0.995
13.508333333333333,0.87
13.511111111111111,0.745
13.51388888888889,0.58
13.516666666666667,0.36
13.519444444444444,0.12
13.522222222222222,-0.075
13.525,-0.285
13.527777777777779,-0.41
13.530555555555555,-0.485
13.533333333333333,-0.465
13.536111111111111,-0.465
13.53888888888889,-0.53
13.541666666666666,-0.58
13.544444444444444,-0.59
13.547222222222222,-0.565
13.55,-0.57
13.552777777777777,-0.6
13.555555555555555,-0.61
13.558333333333334,-0.615
13.561111111111112,-0.63
13.563888888888888,-0.63
13.566666666666666,-0.63
13.569444444444445,-0.6
13.572222222222223,-0.6
13.575,-0.62
13.577777777777778,-0.645
13.580555555555556,-0.63
13.583333333333334,-0.605
13.58611111111111,-0.59
13.588888888888889,-0.6
13.591666666666667,-0.6
13.594444444444445,-0.59
13.597222222222221,-0.56
13.6,-0.55
13.602777777777778,-0.535
13.605555555555556,-0.555
13.608333333333333,-0.565
13.61111111111111,-0.565
13.613888888888889,-0.545
13.616666666666667,-0.515
13.619444444444444,-0.5
13.622222222222222,-0.52
13.625,-0.525
13.627777777777778,-0.51
13.630555555555556,-0.49
13.633333333333333,-0.455
13.636111111111111,-0.465
13.63888888888889,-0.46
13.641666666666667,-0.46
13.644444444444444,-0.47
13.647222222222222,-0.45
13.65,-0.445
13.652777777777779,-0.44
13.655555555555555,-0.42
13.658333333333333,-0.405
13.661111111111111,-0.4
13.66388888888889,-0.33
13.666666666666666,-0.27
13.669444444444444,-0.24
13.672222222222222,-0.25
13.675,-0.27
13.677777777777777,-0.255
13.680555555555555,-0.22
13.683333333333334,-0.21
13.686111111111112,-0.19
13.688888888888888,-0.14
13.691666666666666,-0.095
13.694444444444445,-0.075
13.697222222222223,-0.125
13.7,-0.22
13.702777777777778,-0.265
13.705555555555556,-0.29
13.708333333333334,-0.28
13.71111111111111,-0.28
13.713888888888889,-0.275
13.716666666666667,-0.265
13.719444444444445,-0.26
13.722222222222221,-0.305
13.725,-0.33
13.727777777777778,-0.325
13.730555555555556,-0.3
13.733333333333333,-0.27
13.73611111111111,-0.275
13.738888888888889,-0.28
13.741666666666667,-0.285
13.744444444444444,-0.33
13.747222222222222,-0.33
13.75,-0.34
13.752777777777778,-0.355
13.755555555555556,-0.385
13.758333333333333,-0.38
13.761111111111111,-0.365
13.76388888888889,-0.325
13.766666666666667,-0.3
13.769444444444444,-0.295
13.772222222222222,-0.29
13.775,-0.3
13.777777777777779,-0.32
13.780555555555555,-0.395
13.783333333333333,-0.445
13.786111111111111,-0.455
13.78888888888889,-0.47
13.791666666666666,-0.49
13.794444444444444,-0.51
13.797222222222222,-0.475
13.8,-0.45
13.802777777777777,-0.41
13.805555555555555,-0.39
13.808333333333334,-0.36
13.811111111111112,-0.28
13.813888888888888,-0.195
13.816666666666666,-0.16
13.819444444444445,-0.185
13.822222222222223,-0.265
13.825,-0.355
13.827777777777778,-0.36
13.830555555555556,-0.36
13.833333333333334,-0.37
13.83611111111111,-0.415
13.838888888888889,-0.51
13.841666666666667,-0.605
13.844444444444445,-0.675
13.847222222222221,-0.685
13.85,-0.675
13.852777777777778,-0.635
13.855555555555556,-0.64
13.858333333333333,-0.68
13.86111111111111,-0.71
13.863888888888889,-0.69
13.866666666666667,-0.625
13.869444444444444,-0.56
13.872222222222222,-0.555
13.875,-0.57
13.877777777777778,-0.565
13.880555555555556,-0.545
13.883333333333333,-0.53
13.886111111111111,-0.525
13.88888888888889,-0.54
13.891666666666667,-0.555
13.894444444444444,-0.515
13.897222222222222,-0.465
13.9,-0.435
13.902777777777779,-0.44
13.905555555555555,-0.48
13.908333333333333,-0.475
13.911111111111111,-0.48
13.91388888888889,-0.48
13.916666666666666,-0.485
13.919444444444444,-0.495
13.922222222222222,-0.485
13.925,-0.5
13.927777777777777,-0.505
13.930555555555555,-0.52
13.933333333333334,-0.51
13.936111111111112,-0.5
13.938888888888888,-0.52
13.941666666666666,-0.54
13.944444444444445,-0.565
13.947222222222223,-0.565
13.95,-0.55
13.952777777777778,-0.535
13.955555555555556,-0.545
13.958333333333334,-0.57
13.96111111111111,-0.58
13.963888888888889,-0.58
13.966666666666667,-0.575
13.969444444444445,-0.61
13.972222222222221,-0.61
13.975,-0.615
13.977777777777778,-0.625
13.980555555555556,-0.625
13.983333333333333,-0.625
13.98611111111111,-0.63
13.988888888888889,-0.645
13.991666666666667,-0.665
13.994444444444444,-0.675
13.997222222222222,-0.65
14.0,-0.645
14.002777777777778,-0.615
14.005555555555556,-0.625
14.008333333333333,-0.635
14.011111111111111,-0.635
14.01388888888889,-0.63
14.016666666666667,-0.63
14.019444444444444,-0.63
14.022222222222222,-0.655
14.025,-0.66
14.027777777777779,-0.665
14.030555555555555,-0.66
14.033333333333333,-0.62
14.036111111111111,-0.58
14.03888888888889,-0.565
14.041666666666666,-0.59
14.044444444444444,-0.625
14.047222222222222,-0.645
14.05,-0.665
14.052777777777777,-0.685
14.055555555555555,-0.71
14.058333333333334,-0.715
14.061111111111112,-0.675
14.063888888888888,-0.62
14.066666666666666,-0.56
14.069444444444445,-0.535
14.072222222222223,-0.545
14.075,-0.585
14.077777777777778,-0.535
14.080555555555556,-0.43
14.083333333333334,-0.3
14.08611111111111,-0.245
14.088888888888889,-0.2
14.091666666666667,-0.135
14.094444444444445,0.01
14.097222222222221,0.235
14.1,0.49
14.102777777777778,0.69
14.105555555555556,0.795
14.108333333333333,0.83
14.11111111111111,0.85
14.113888888888889,0.91
14.116666666666667,0.955
14.119444444444444,0.96
14.122222222222222,0.93
14.125,0.835
14.127777777777778,0.73
14.130555555555556,0.61
14.133333333333333,0.485
14.136111111111111,0.255
14.13888888888889,-0.035
14.141666666666667,-0.305
14.144444444444444,-0.535
14.147222222222222,-0.715
14.15,-0.825
14.152777777777779,-0.855
14.155555555555555,-0.88
14.158333333333333,-0.92
14.161111111111111,-0.98
14.16388888888889,-1.0
14.166666666666666,-1.0
14.169444444444444,-0.995
14.172222222222222,-1.015
14.175,-1.04
14.177777777777777,-1.055
14.180555555555555,-1.075
14.183333333333334,-1.07
14.186111111111112,-1.09
14.188888888888888,-1.105
14.191666666666666,-1.15
14.194444444444445,-1.18
14.197222222222223,-1.17
14.2,-1.155
14.202777777777778,-1.13
14.205555555555556,-1.155
14.208333333333334,-1.155
14.21111111111111,-1.17
14.213888888888889,-1.16
14.216666666666667,-1.155
14.219444444444445,-1.14
14.222222222222221,-1.155
14.225,-1.16
14.227777777777778,-1.16
14.230555555555556,-1.16
14.233333333333333,-1.135
14.23611111111111,-1.135
14.238888888888889,-1.175
14.241666666666667,-1.175
14.244444444444444,-1.145
14.247222222222222,-1.12
14.25,-1.12
14.252777777777778,-1.125
14.255555555555556,-1.155
14.258333333333333,-1.15
14.261111111111111,-1.145
14.26388888888889,-1.125
14.266666666666667,-1.105
14.269444444444444,-1.1
14.272222222222222,-1.09
14.275,-1.105
14.277777777777779,-1.115
14.280555555555555,-1.085
14.283333333333333,-1.07
14.286111111111111,-1.07
14.28888888888889,-1.05
14.291666666666666,-1.04
14.294444444444444,-1.03
14.297222222222222,-1.025
14.3,-1.005
14.302777777777777,-0.975
14.305555555555555,-0.985
14.308333333333334,-0.97
14.311111111111112,-0.94
14.313888888888888,-0.915
14.316666666666666,-0.92
14.319444444444445,-0.89
14.322222222222223,-0.865
14.325,-0.86
14.327777777777778,-0.855
14.330555555555556,-0.87
14.333333333333334,-0.895
14.33611111111111,-0.875
14.338888888888889,-0.87
